Time (BJD_TBD - 2450000), L_c/L_star (ppm)
9.891095520833507180e+03,9.988098859834695573e-03
9.891098214161867872e+03,2.996403672577064789e-02
9.891100907490228565e+03,6.064392640427717501e-02
9.891103600818589257e+03,1.020262699979530285e-01
9.891106294146949949e+03,1.541090470788473721e-01
9.891108987475310641e+03,2.168897147872216880e-01
9.891111680803671334e+03,2.903652079555565368e-01
9.891114374132032026e+03,3.745319392583135176e-01
9.891117067460392718e+03,4.693857993870144130e-01
9.891119760788751591e+03,5.749221571760738669e-01
9.891122454117112284e+03,6.911358601211240460e-01
9.891125147445472976e+03,8.180212342030093176e-01
9.891127840773833668e+03,9.555720844426282001e-01
9.891130534102194360e+03,1.103781695135749974e+00
9.891133227430555053e+03,1.262642830180949138e+00
9.891135920758915745e+03,1.432147733432832082e+00
9.891138614087276437e+03,1.612288129080723831e+00
9.891141307415637129e+03,1.803055222052776463e+00
9.891144000743997822e+03,2.004439698445290130e+00
9.891146694072358514e+03,2.216431725977526579e+00
9.891149387400719206e+03,2.439020954471742719e+00
9.891152080729079898e+03,2.672196516358488427e+00
9.891154774057440591e+03,2.915947027207153486e+00
9.891157467385801283e+03,3.170260586281927750e+00
9.891160160714161975e+03,3.435124777122760875e+00
9.891162854042522667e+03,3.710526668151546303e+00
9.891165547370883360e+03,3.996452813303517093e+00
9.891168240699242233e+03,4.292889252480016182e+00
9.891170934027602925e+03,4.599821513037939624e+00
9.891173627355963617e+03,4.917234609295045189e+00
9.891176320684324310e+03,5.245113044055520923e+00
9.891179014012685002e+03,5.583440809169792907e+00
9.891181707341045694e+03,5.932201386316123148e+00
9.891184400669406386e+03,6.291377747807145759e+00
9.891187093997767079e+03,6.660952357421140668e+00
9.891189787326127771e+03,7.040907171258336206e+00
9.891192480654488463e+03,7.431223638621745842e+00
9.891195173982849155e+03,7.831882702922858819e+00
9.891197867311209848e+03,8.242864802612242414e+00
9.891200560639570540e+03,8.664149872134400354e+00
9.891203253967931232e+03,9.095717342907502001e+00
9.891205947296291924e+03,9.537546144327663455e+00
9.891208640624652617e+03,9.989614704797649125e+00
9.891211333953013309e+03,1.045190095278006126e+01
9.891214027281374001e+03,1.092438231787498282e+01
9.891216720609732874e+03,1.140703573159243689e+01
9.891219413938093567e+03,1.189983762978958737e+01
9.891222107266454259e+03,1.240276395186526237e+01
9.891224800594814951e+03,1.291579014323171037e+01
9.891227493923175643e+03,1.343889115619097296e+01
9.891230187251536336e+03,1.397204145115774132e+01
9.891232880579897028e+03,1.451521499790625747e+01
9.891235573908257720e+03,1.506838527684127449e+01
9.891238267236618412e+03,1.563152528029281640e+01
9.891240960564979105e+03,1.620460751383474118e+01
9.891243653893339797e+03,1.678760399762711941e+01
9.891246347221700489e+03,1.738048626778233441e+01
9.891249040550061181e+03,1.798322537775485230e+01
9.891251733878421874e+03,1.859579189975430680e+01
9.891254427206782566e+03,1.921815592618241553e+01
9.891257120535143258e+03,1.985028707109315604e+01
9.891259813863503950e+03,2.049215447167627602e+01
9.891262507191864643e+03,2.114372678976413766e+01
9.891265200520223516e+03,2.180497221291188836e+01
9.891267893848584208e+03,2.247585845774352009e+01
9.891270587176944900e+03,2.315635276884860971e+01
9.891273280505305593e+03,2.384642192216122680e+01
9.891275973833666285e+03,2.454603222613886615e+01
9.891278667162026977e+03,2.525514952340735420e+01
9.891281360490387669e+03,2.597373919242845375e+01
9.891284053818748362e+03,2.670176614919025937e+01
9.891286747147109054e+03,2.743919484892010274e+01
9.891289440475469746e+03,2.818598928782003910e+01
9.891292133803830438e+03,2.894211300482458071e+01
9.891294827132191131e+03,2.970752908338091913e+01
9.891297520460551823e+03,3.048220015325124166e+01
9.891300213788912515e+03,3.126608839233730919e+01
9.891302907117273207e+03,3.205915552852712125e+01
9.891305600445633900e+03,3.286136284156346221e+01
9.891308293773994592e+03,3.367267116493427892e+01
9.891310987102353465e+03,3.449304088722795569e+01
9.891313680430714157e+03,3.532243195628937826e+01
9.891316373759074850e+03,3.616080387785140005e+01
9.891319067087435542e+03,3.700811571972178626e+01
9.891321760415796234e+03,3.786432611323071740e+01
9.891324453744156926e+03,3.872939325525059218e+01
9.891327147072517619e+03,3.960327491023694790e+01
9.891329840400878311e+03,4.048592841229061889e+01
9.891332533729239003e+03,4.137731066724078488e+01
9.891335227057599695e+03,4.227737815474887384e+01
9.891337920385960388e+03,4.318608693043360347e+01
9.891340613714321080e+03,4.410339262801634419e+01
9.891343307042681772e+03,4.502925046148718735e+01
9.891346000371042464e+03,4.596361522729164051e+01
9.891348693699403157e+03,4.690644130653768684e+01
9.891351387027763849e+03,4.785768266722286768e+01
9.891354080356124541e+03,4.881729286648190680e+01
9.891356773684485233e+03,4.978522505285407362e+01
9.891359467012844107e+03,5.076143196790862078e+01
9.891362160341204799e+03,5.174586595119484400e+01
9.891364853669565491e+03,5.273847893861329084e+01
9.891367546997926183e+03,5.373922246739391539e+01
9.891370240326286876e+03,5.474804767780581471e+01
9.891372933654647568e+03,5.576490531554269836e+01
9.891375626983008260e+03,5.678974573412751425e+01
9.891378320311368952e+03,5.782251889733662864e+01
9.891381013639729645e+03,5.886317438164245885e+01
9.891383706968090337e+03,5.991166137867561758e+01
9.891386400296451029e+03,6.096792869770531809e+01
9.891389093624811721e+03,6.203192476813875089e+01
9.891391786953172414e+03,6.310359764203906963e+01
9.891394480281533106e+03,6.418289499666147435e+01
9.891397173609893798e+03,6.526976413700786850e+01
9.891399866938254490e+03,6.636415199839963464e+01
9.891402560266615183e+03,6.746600514906839408e+01
9.891405253594975875e+03,6.857526979276475743e+01
9.891407946923334748e+03,6.969189177062827412e+01
9.891410640251695440e+03,7.081581656685295911e+01
9.891413333580056133e+03,7.194698930682437776e+01
9.891416026908416825e+03,7.308535476281018362e+01
9.891418720236777517e+03,7.423085735590512968e+01
9.891421413565138209e+03,7.538344115874427587e+01
9.891424106893498902e+03,7.654304989823383210e+01
9.891426800221859594e+03,7.770962695829852862e+01
9.891429493550220286e+03,7.888311538264575518e+01
9.891432186878580978e+03,8.006345787754634102e+01
9.891434880206941671e+03,8.125059681463203276e+01
9.891437573535302363e+03,8.244447423370881722e+01
9.891440266863663055e+03,8.364503184558698479e+01
9.891442960192023747e+03,8.485221103492685302e+01
9.891445653520384440e+03,8.606595286310056281e+01
9.891448346848745132e+03,8.728619807106989015e+01
9.891451040177105824e+03,8.851288708227913560e+01
9.891453733505466516e+03,8.974596000556405784e+01
9.891456426833825390e+03,9.098535663723690448e+01
9.891459120162186082e+03,9.223101646737795534e+01
9.891461813490546774e+03,9.348287867776754467e+01
9.891464506818907466e+03,9.474088214819965970e+01
9.891467200147268159e+03,9.600496545863077813e+01
9.891469893475628851e+03,9.727506689217874225e+01
9.891472586803989543e+03,9.855112443813608536e+01
9.891475280132350235e+03,9.983307579499738438e+01
9.891477973460710928e+03,1.011208583735012638e+02
9.891480666789071620e+03,1.024144092996859285e+02
9.891483360117432312e+03,1.037136654179593762e+02
9.891486053445793004e+03,1.050185632941822718e+02
9.891488746774153697e+03,1.063290392187654589e+02
9.891491440102514389e+03,1.076450292097803327e+02
9.891494133430875081e+03,1.089664690160825415e+02
9.891496826759235773e+03,1.102932941204491613e+02
9.891499520087596466e+03,1.116254397427285880e+02
9.891502213415955339e+03,1.129628408420981174e+02
9.891504906744316031e+03,1.143054321238563062e+02
9.891507600072676723e+03,1.156531480371910590e+02
9.891510293401037416e+03,1.170059227819899235e+02
9.891512986729398108e+03,1.183636903111507195e+02
9.891515680057758800e+03,1.197263843338065072e+02
9.891518373386119492e+03,1.210939383185619675e+02
9.891521066714480185e+03,1.224662854967419179e+02
9.891523760042840877e+03,1.238433588656508704e+02
9.891526453371201569e+03,1.252250911918446263e+02
9.891529146699562261e+03,1.266114150144125432e+02
9.891531840027922954e+03,1.280022626482715964e+02
9.891534533356283646e+03,1.293975661874707157e+02
9.891537226684644338e+03,1.307972575085061351e+02
9.891539920013005030e+03,1.322012682736476279e+02
9.891542613341365723e+03,1.336095299342748604e+02
9.891545306669726415e+03,1.350219737342242183e+02
9.891547999998087107e+03,1.364385307131458092e+02
9.891550693326445980e+03,1.378591317089091888e+02
9.891553386654806673e+03,1.392837073648210549e+02
9.891556079983167365e+03,1.407121881272544783e+02
9.891558773311528057e+03,1.421445042528799547e+02
9.891561466639888749e+03,1.435805858111125133e+02
9.891564159968249442e+03,1.450203626875255907e+02
9.891566853296610134e+03,1.464637645872747100e+02
9.891569546624970826e+03,1.479107210385293740e+02
9.891572239953331518e+03,1.493611613959134274e+02
9.891574933281692211e+03,1.508150148439547991e+02
9.891577626610052903e+03,1.522722104005423489e+02
9.891580319938413595e+03,1.537326769203918673e+02
9.891583013266774287e+03,1.551963430985196339e+02
9.891585706595134980e+03,1.566631374737233102e+02
9.891588399923495672e+03,1.581329884320715280e+02
9.891591093251856364e+03,1.596058242103999305e+02
9.891593786580217056e+03,1.610815728998150576e+02
9.891596479908577749e+03,1.625601624492050234e+02
9.891599173236936622e+03,1.640415206677563162e+02
9.891601866565297314e+03,1.655255752324814296e+02
9.891604559893658006e+03,1.670122536857478224e+02
9.891607253222018699e+03,1.685014834428150721e+02
9.891609946550379391e+03,1.699931917943795270e+02
9.891612639878740083e+03,1.714873059101239505e+02
9.891615333207100775e+03,1.729837528422733897e+02
9.891618026535461468e+03,1.744824595291569551e+02
9.891620719863822160e+03,1.759833527987746038e+02
9.891623413192182852e+03,1.774863593723699466e+02
9.891626106520543544e+03,1.789914058680078597e+02
9.891628799848904237e+03,1.804984188041570121e+02
9.891631493177264929e+03,1.820073246032780219e+02
9.891634186505625621e+03,1.835180495954153628e+02
9.891636879833986313e+03,1.850305200217940467e+02
9.891639573162347006e+03,1.865446620384213077e+02
9.891642266490707698e+03,1.880604017196912991e+02
9.891644959819068390e+03,1.895776650619949351e+02
9.891647653147427263e+03,1.910963779863065497e+02
9.891650346475787956e+03,1.926164663459044561e+02
9.891653039804148648e+03,1.941378559238368666e+02
9.891655733132509340e+03,1.956604724406472826e+02
9.891658426460870032e+03,1.971842415569759055e+02
9.891661119789230725e+03,1.987090888771890889e+02
9.891663813117591417e+03,2.002349399530113487e+02
9.891666506445952109e+03,2.017617202871606708e+02
9.891669199774312801e+03,2.032893553369854089e+02
9.891671893102673494e+03,2.048177705181036572e+02
9.891674586431034186e+03,2.063468912080448661e+02
9.891677279759394878e+03,2.078766427498931932e+02
9.891679973087755570e+03,2.094069504559324457e+02
9.891682666416116263e+03,2.109377396112924998e+02
9.891685359744476955e+03,2.124689354775972276e+02
9.891688053072837647e+03,2.140004632966135603e+02
9.891690746401198339e+03,2.155322482939013469e+02
9.891693439729559032e+03,2.170642156824640097e+02
9.891696133057917905e+03,2.185962906653654159e+02
9.891698826386278597e+03,2.201283984435202967e+02
9.891701519714639289e+03,2.216604642131382548e+02
9.891704213042999982e+03,2.231924131735146091e+02
9.891706906371360674e+03,2.247241705296473810e+02
9.891709599699721366e+03,2.262556614958897967e+02
9.891712293028082058e+03,2.277868112996009131e+02
9.891714986356442751e+03,2.293175451847964439e+02
9.891717679684803443e+03,2.308477884157990161e+02
9.891720373013164135e+03,2.323774662808861535e+02
9.891723066341524827e+03,2.339065040959389705e+02
9.891725759669885520e+03,2.354348272080877393e+02
9.891728452998246212e+03,2.369623609993571449e+02
9.891731146326606904e+03,2.384890308903089817e+02
9.891733839654967596e+03,2.400147623436839979e+02
9.891736532983328289e+03,2.415394808680401582e+02
9.891739226311688981e+03,2.430631120213906797e+02
9.891741919640047854e+03,2.445855814138097344e+02
9.891744612968408546e+03,2.461068147151770518e+02
9.891747306296769239e+03,2.476267376526375585e+02
9.891749999625129931e+03,2.491452760183409794e+02
9.891752692953490623e+03,2.506623556720369947e+02
9.891755386281851315e+03,2.521779025446943194e+02
9.891758079610212008e+03,2.536918426421174502e+02
9.891760772938572700e+03,2.552041020485589797e+02
9.891763466266933392e+03,2.567146069303286708e+02
9.891766159595294084e+03,2.582232835393984374e+02
9.891768852923654777e+03,2.597300582170023517e+02
9.891771546252015469e+03,2.612348573972336112e+02
9.891774239580376161e+03,2.627376076106357345e+02
9.891776932908736853e+03,2.642382354877899502e+02
9.891779626237097546e+03,2.657366677628971843e+02
9.891782319565458238e+03,2.672328312773553307e+02
9.891785012893818930e+03,2.687266529833306663e+02
9.891787706222179622e+03,2.702180599473248890e+02
9.891790399550538496e+03,2.717069793527308548e+02
9.891793092878899188e+03,2.731933385074081571e+02
9.891795786207259880e+03,2.746770648411995808e+02
9.891798479535620572e+03,2.761580859134971320e+02
9.891801172863981265e+03,2.776363294157733890e+02
9.891803866192341957e+03,2.791117231751111945e+02
9.891806559520702649e+03,2.805841951577275495e+02
9.891809252849063341e+03,2.820536734724908570e+02
9.891811946177424034e+03,2.835200863744304911e+02
9.891814639505784726e+03,2.849833622682397731e+02
9.891817332834145418e+03,2.864434297117716142e+02
9.891820026162506110e+03,2.879002174195263706e+02
9.891822719490866803e+03,2.893536542661323665e+02
9.891825412819227495e+03,2.908036692898188562e+02
9.891828106147588187e+03,2.922501916958792663e+02
9.891830799475948879e+03,2.936931508601296628e+02
9.891833492804309572e+03,2.951324763323549973e+02
9.891836186132670264e+03,2.965680978397500098e+02
9.891838879461029137e+03,2.979999452893839589e+02
9.891841572789389829e+03,2.994279487754878346e+02
9.891844266117750522e+03,3.008520385770663665e+02
9.891846959446111214e+03,3.022721451651717075e+02
9.891849652774471906e+03,3.036881992053301929e+02
9.891852346102832598e+03,3.051001315609276503e+02
9.891855039431193291e+03,3.065078732965845916e+02
9.891857732759553983e+03,3.079113556815216839e+02
9.891860426087914675e+03,3.093105101929162402e+02
9.891863119416275367e+03,3.107052685192467720e+02
9.891865812744636060e+03,3.120955625636286186e+02
9.891868506072996752e+03,3.134813244471390590e+02
9.891871199401357444e+03,3.148624865121306016e+02
9.891873892729718136e+03,3.162389813255349509e+02
9.891876586058078829e+03,3.176107416821546394e+02
9.891879279386439521e+03,3.189777006079452235e+02
9.891881972714800213e+03,3.203397913632840641e+02
9.891884666043160905e+03,3.216969474462294443e+02
9.891887359371519779e+03,3.230491025948559809e+02
9.891890052699880471e+03,3.243961907941386471e+02
9.891892746028241163e+03,3.257381462736971685e+02
9.891895439356601855e+03,3.270749035146629353e+02
9.891898132684962548e+03,3.284063972519634831e+02
9.891900826013323240e+03,3.297325624775083384e+02
9.891903519341683932e+03,3.310533344433634966e+02
9.891906212670044624e+03,3.323686486649122571e+02
9.891908905998405316e+03,3.336784409240036666e+02
9.891911599326766009e+03,3.349826472720880588e+02
9.891914292655126701e+03,3.362812040333388381e+02
9.891916985983487393e+03,3.375740478077620423e+02
9.891919679311848085e+03,3.388611154742908411e+02
9.891922372640208778e+03,3.401423441938682686e+02
9.891925065968569470e+03,3.414176714125142098e+02
9.891927759296930162e+03,3.426870348643807347e+02
9.891930452625290854e+03,3.439503725747907197e+02
9.891933145953649728e+03,3.452076228624180771e+02
9.891935839282010420e+03,3.464587243456903707e+02
9.891938532610371112e+03,3.477036159406915772e+02
9.891941225938731804e+03,3.489422368675449775e+02
9.891943919267092497e+03,3.501745266525293800e+02
9.891946612595453189e+03,3.514004251310315112e+02
9.891949305923813881e+03,3.526198724504837401e+02
9.891951999252174573e+03,3.538328090732862279e+02
9.891954692580535266e+03,3.550391757797132186e+02
9.891957385908895958e+03,3.562389136708052888e+02
9.891960079237256650e+03,3.574319641712443740e+02
9.891962772565617342e+03,3.586182690322137319e+02
9.891965465893978035e+03,3.597977703342418181e+02
9.891968159222338727e+03,3.609704104900301331e+02
9.891970852550699419e+03,3.621361322472652091e+02
9.891973545879060111e+03,3.632948786914128618e+02
9.891976239207420804e+03,3.644465932484984592e+02
9.891978932535781496e+03,3.655912196878673512e+02
9.891981625864140369e+03,3.667287021241660341e+02
9.891984319192501061e+03,3.678589850231373930e+02
9.891987012520861754e+03,3.689820131997236672e+02
9.891989705849222446e+03,3.700977318238381599e+02
9.891992399177583138e+03,3.712060864222715963e+02
9.891995092505943830e+03,3.723070228813513722e+02
9.891997785834304523e+03,3.734004874495842614e+02
9.892000479162665215e+03,3.744864267402802511e+02
9.892003172491025907e+03,3.755647877341589833e+02
9.892005865819386599e+03,3.766355177819390292e+02
9.892008559147747292e+03,3.776985646069072686e+02
9.892011252476107984e+03,3.787538763074725807e+02
9.892013945804468676e+03,3.798014013596984455e+02
9.892016639132829368e+03,3.808410886198196863e+02
9.892019332461190061e+03,3.818728873267389190e+02
9.892022025789550753e+03,3.828967471045048114e+02
9.892024719117911445e+03,3.839126179647720392e+02
9.892027412446272137e+03,3.849204503092414029e+02
9.892030105774631011e+03,3.859201949314092985e+02
9.892032799102991703e+03,3.869118030216650936e+02
9.892035492431352395e+03,3.878952261656233418e+02
9.892038185759713087e+03,3.888704163491941017e+02
9.892040879088073780e+03,3.898373259602480516e+02
9.892043572416434472e+03,3.907959077909421808e+02
9.892046265744795164e+03,3.917461150400243355e+02
9.892048959073155856e+03,3.926879013151182676e+02
9.892051652401516549e+03,3.936212206349878784e+02
9.892054345729877241e+03,3.945460274317838412e+02
9.892057039058237933e+03,3.954622765532666904e+02
9.892059732386598625e+03,3.963699232650121189e+02
9.892062425714959318e+03,3.972689232525954139e+02
9.892065119043320010e+03,3.981592326237538373e+02
9.892067812371680702e+03,3.990408079105309298e+02
9.892070505700041394e+03,3.999136060713981919e+02
9.892073199028402087e+03,4.007775844933561871e+02
9.892075892356762779e+03,4.016327009940154085e+02
9.892078585685121652e+03,4.024789138230874528e+02
9.892081279013482344e+03,4.033161816667030735e+02
9.892083972341843037e+03,4.041444636460004745e+02
9.892086665670203729e+03,4.049637193214129525e+02
9.892089358998564421e+03,4.057739086940690072e+02
9.892092052326925113e+03,4.065749922077449696e+02
9.892094745655285806e+03,4.073669307507967119e+02
9.892097438983646498e+03,4.081496856580686767e+02
9.892100132312007190e+03,4.089232187127821021e+02
9.892102825640367882e+03,4.096874921484004517e+02
9.892105518968728575e+03,4.104424686504736997e+02
9.892108212297089267e+03,4.111881113584599348e+02
9.892110905625449959e+03,4.119243838675253073e+02
9.892113598953810651e+03,4.126512502303209544e+02
9.892116292282171344e+03,4.133686749587383247e+02
9.892118985610532036e+03,4.140766230256419931e+02
9.892121678938892728e+03,4.147750598665795678e+02
9.892124372267251601e+03,4.154639513810072344e+02
9.892127065595612294e+03,4.161432639358095571e+02
9.892129758923972986e+03,4.168129643641492521e+02
9.892132452252333678e+03,4.174730199689551000e+02
9.892135145580694370e+03,4.181233985240488664e+02
9.892137838909055063e+03,4.187640682757188983e+02
9.892140532237415755e+03,4.193949979442712106e+02
9.892143225565776447e+03,4.200161567255557316e+02
9.892145918894137139e+03,4.206275142924704369e+02
9.892148612222497832e+03,4.212290407964424617e+02
9.892151305550858524e+03,4.218207068688851109e+02
9.892153998879219216e+03,4.224024836226317348e+02
9.892156692207579908e+03,4.229743426533460138e+02
9.892159385535940601e+03,4.235362560409092225e+02
9.892162078864301293e+03,4.240881963507825390e+02
9.892164772192661985e+03,4.246301366353474691e+02
9.892167465521022677e+03,4.251620504352208059e+02
