Time (BJD_TBD - 2450000), L_c/L_star (ppm)
7.260000000000000000e+03,4.086678215753172481e+02
7.260003000300030180e+03,4.078021190491140828e+02
7.260006000600060361e+03,4.069249935455197829e+02
7.260009000900089632e+03,4.060364982084159351e+02
7.260012001200119812e+03,4.051366868697538735e+02
7.260015001500149992e+03,4.042256140479095734e+02
7.260018001800180173e+03,4.033033349433065951e+02
7.260021002100210353e+03,4.023699054353386373e+02
7.260024002400239624e+03,4.014253820792721399e+02
7.260027002700269804e+03,4.004698221016719799e+02
7.260030003000299985e+03,3.995032833986501828e+02
7.260033003300330165e+03,3.985258245312181202e+02
7.260036003600360345e+03,3.975375047220217084e+02
7.260039003900389616e+03,3.965383838520584163e+02
7.260042004200419797e+03,3.955285224558344339e+02
7.260045004500449977e+03,3.945079817195132819e+02
7.260048004800480157e+03,3.934768234760017549e+02
7.260051005100510338e+03,3.924351102015041874e+02
7.260054005400539609e+03,3.913829050120571651e+02
7.260057005700569789e+03,3.903202716584272594e+02
7.260060006000599969e+03,3.892472745241616963e+02
7.260063006300630150e+03,3.881639786204154348e+02
7.260066006600660330e+03,3.870704495823285356e+02
7.260069006900690511e+03,3.859667536650503052e+02
7.260072007200719781e+03,3.848529577400640278e+02
7.260075007500749962e+03,3.837291292897814969e+02
7.260078007800780142e+03,3.825953364054803387e+02
7.260081008100810323e+03,3.814516477818310136e+02
7.260084008400840503e+03,3.802981327130706859e+02
7.260087008700869774e+03,3.791348610891589601e+02
7.260090009000899954e+03,3.779619033901300895e+02
7.260093009300930134e+03,3.767793306839380421e+02
7.260096009600960315e+03,3.755872146207435662e+02
7.260099009900990495e+03,3.743856274289237831e+02
7.260102010201019766e+03,3.731746419110646684e+02
7.260105010501049946e+03,3.719543314380787251e+02
7.260108010801080127e+03,3.707247699469624536e+02
7.260111011101110307e+03,3.694860319348504731e+02
7.260114011401140488e+03,3.682381924548682264e+02
7.260117011701169758e+03,3.669813271119667206e+02
7.260120012001199939e+03,3.657155120568146458e+02
7.260123012301230119e+03,3.644408239834712617e+02
7.260126012601260300e+03,3.631573401232175229e+02
7.260129012901290480e+03,3.618651382402574086e+02
7.260132013201319751e+03,3.605642966274008359e+02
7.260135013501349931e+03,3.592548940997409090e+02
7.260138013801380112e+03,3.579370099922442705e+02
7.260141014101410292e+03,3.566107241533698016e+02
7.260144014401440472e+03,3.552761169406233535e+02
7.260147014701469743e+03,3.539332692160979832e+02
7.260150015001499924e+03,3.525822623399435543e+02
7.260153015301530104e+03,3.512231781678790412e+02
7.260156015601560284e+03,3.498560990446086407e+02
7.260159015901590465e+03,3.484811077992370656e+02
7.260162016201619736e+03,3.470982877406724469e+02
7.260165016501649916e+03,3.457077226508989156e+02
7.260168016801680096e+03,3.443094967824162040e+02
7.260171017101710277e+03,3.429036948514597611e+02
7.260174017401740457e+03,3.414904020332867276e+02
7.260177017701769728e+03,3.400697039574465066e+02
7.260180018001799908e+03,3.386416867008680356e+02
7.260183018301830089e+03,3.372064367852284477e+02
7.260186018601860269e+03,3.357640411699902074e+02
7.260189018901890449e+03,3.343145872475623719e+02
7.260192019201920630e+03,3.328581628380051711e+02
7.260195019501949901e+03,3.313948561841541505e+02
7.260198019801980081e+03,3.299247559444967237e+02
7.260201020102010261e+03,3.284479511904628453e+02
7.260204020402040442e+03,3.269645313992551223e+02
7.260207020702070622e+03,3.254745864488708094e+02
7.260210021002099893e+03,3.239782066131104443e+02
7.260213021302130073e+03,3.224754825542921139e+02
7.260216021602160254e+03,3.209665053204797118e+02
7.260219021902190434e+03,3.194513663381543438e+02
7.260222022202220614e+03,3.179301574071276377e+02
7.260225022502249885e+03,3.164029706954430594e+02
7.260228022802280066e+03,3.148698987319386333e+02
7.260231023102310246e+03,3.133310344034181867e+02
7.260234023402340426e+03,3.117864709471731999e+02
7.260237023702370607e+03,3.102363019457962992e+02
7.260240024002399878e+03,3.086806213219834376e+02
7.260243024302430058e+03,3.071195233309550758e+02
7.260246024602460238e+03,3.055531025575752437e+02
7.260249024902490419e+03,3.039814539087356593e+02
7.260252025202520599e+03,3.024046726080771919e+02
7.260255025502549870e+03,3.008228541906991040e+02
7.260258025802580050e+03,2.992360944954527326e+02
7.260261026102610231e+03,2.976444896620112104e+02
7.260264026402640411e+03,2.960481361231275059e+02
7.260267026702670591e+03,2.944471305992714747e+02
7.260270027002699862e+03,2.928415700932561663e+02
7.260273027302730043e+03,2.912315518824130436e+02
7.260276027602760223e+03,2.896171735156179352e+02
7.260279027902790403e+03,2.879985328054357865e+02
7.260282028202820584e+03,2.863757278226793801e+02
7.260285028502849855e+03,2.847488568909624291e+02
7.260288028802880035e+03,2.831180185787673622e+02
7.260291029102910215e+03,2.814833116964328497e+02
7.260294029402940396e+03,2.798448352881952133e+02
7.260297029702970576e+03,2.782026886266805263e+02
7.260300030002999847e+03,2.765569712073885853e+02
7.260303030303030027e+03,2.749077827406686652e+02
7.260306030603060208e+03,2.732552231486715755e+02
7.260309030903090388e+03,2.715993925572998364e+02
7.260312031203120569e+03,2.699403912906415712e+02
7.260315031503150749e+03,2.682783198648903635e+02
7.260318031803180020e+03,2.666132789827611873e+02
7.260321032103210200e+03,2.649453695253686192e+02
7.260324032403240381e+03,2.632746925491437651e+02
7.260327032703270561e+03,2.616013492776924068e+02
7.260330033003300741e+03,2.599254410961673329e+02
7.260333033303330012e+03,2.582470695456336784e+02
7.260336033603360193e+03,2.565663363148818235e+02
7.260339033903390373e+03,2.548833432373184564e+02
7.260342034203420553e+03,2.531981922827620224e+02
7.260345034503450734e+03,2.515109855517735866e+02
7.260348034803480004e+03,2.498218252699822415e+02
7.260351035103510185e+03,2.481308137798436917e+02
7.260354035403540365e+03,2.464380535375107115e+02
7.260357035703570546e+03,2.447436471045788551e+02
7.260360036003600726e+03,2.430476971423830719e+02
7.260363036303629997e+03,2.413503064062936687e+02
7.260366036603660177e+03,2.396515777374306424e+02
7.260369036903690358e+03,2.379516140595210629e+02
7.260372037203720538e+03,2.362505183706046239e+02
7.260375037503750718e+03,2.345483937373076913e+02
7.260378037803779989e+03,2.328453432891153057e+02
7.260381038103810170e+03,2.311414702100572640e+02
7.260384038403840350e+03,2.294368777355532245e+02
7.260387038703870530e+03,2.277316691440946954e+02
7.260390039003900711e+03,2.260259477515019455e+02
7.260393039303929982e+03,2.243198169051826767e+02
7.260396039603960162e+03,2.226133799758009104e+02
7.260399039903990342e+03,2.209067403541173178e+02
7.260402040204020523e+03,2.192000014426562018e+02
7.260405040504050703e+03,2.174932666499580023e+02
7.260408040804079974e+03,2.157866393848302664e+02
7.260411041104110154e+03,2.140802230480140338e+02
7.260414041404140335e+03,2.123741210290228310e+02
7.260417041704170515e+03,2.106684366978083176e+02
7.260420042004200695e+03,2.089632733990153781e+02
7.260423042304230876e+03,2.072587344457203073e+02
7.260426042604260147e+03,2.055549231136878063e+02
7.260429042904290327e+03,2.038519426330475710e+02
7.260432043204320507e+03,2.021498961851395393e+02
7.260435043504350688e+03,2.004488868941946578e+02
7.260438043804380868e+03,1.987490178216050083e+02
7.260441044104410139e+03,1.970503919601927976e+02
7.260444044404440319e+03,1.953531122259120423e+02
7.260447044704470500e+03,1.936572814547017458e+02
7.260450045004500680e+03,1.919630023941954846e+02
7.260453045304530860e+03,1.902703776980112309e+02
7.260456045604560131e+03,1.885795099200442451e+02
7.260459045904590312e+03,1.868905015062031225e+02
7.260462046204620492e+03,1.852034547912787730e+02
7.260465046504650672e+03,1.835184719906933992e+02
7.260468046804680853e+03,1.818356551948193669e+02
7.260471047104710124e+03,1.801551063633039291e+02
7.260474047404740304e+03,1.784769273168539030e+02
7.260477047704770484e+03,1.768012197341234355e+02
7.260480048004800665e+03,1.751280851435147099e+02
7.260483048304830845e+03,1.734576249175367479e+02
7.260486048604860116e+03,1.717899402671680491e+02
7.260489048904890296e+03,1.701251322337033685e+02
7.260492049204920477e+03,1.684633016856652716e+02
7.260495049504950657e+03,1.668045493106686479e+02
7.260498049804980838e+03,1.651489756098276587e+02
7.260501050105010108e+03,1.634966808921655286e+02
7.260504050405040289e+03,1.618477652665354469e+02
7.260507050705070469e+03,1.602023286385599476e+02
7.260510051005100649e+03,1.585604707025732694e+02
7.260513051305130830e+03,1.569222909360824474e+02
7.260516051605160101e+03,1.552878885942354543e+02
7.260519051905190281e+03,1.536573627018262016e+02
7.260522052205220461e+03,1.520308120502675706e+02
7.260525052505250642e+03,1.504083351896232728e+02
7.260528052805280822e+03,1.487900304231325208e+02
7.260531053105310093e+03,1.471759958017429142e+02
7.260534053405340273e+03,1.455663291162136943e+02
7.260537053705370454e+03,1.439611278941259798e+02
7.260540054005400634e+03,1.423604893920165182e+02
7.260543054305430815e+03,1.407645105899737530e+02
7.260546054605460995e+03,1.391732881857624307e+02
7.260549054905490266e+03,1.375869185894455313e+02
7.260552055205520446e+03,1.360054979156197419e+02
7.260555055505550627e+03,1.344291219804783282e+02
7.260558055805580807e+03,1.328578862940804015e+02
7.260561056105610987e+03,1.312918860550454667e+02
7.260564056405640258e+03,1.297312161452584007e+02
7.260567056705670439e+03,1.281759711222294698e+02
7.260570057005700619e+03,1.266262452162039125e+02
7.260573057305730799e+03,1.250821323225586639e+02
7.260576057605760980e+03,1.235437259965876819e+02
7.260579057905790251e+03,1.220111194482964549e+02
7.260582058205820431e+03,1.204844055348987695e+02
7.260585058505850611e+03,1.189636767579781065e+02
7.260588058805880792e+03,1.174490252560221393e+02
7.260591059105910972e+03,1.159405427993070106e+02
7.260594059405940243e+03,1.144383207847902639e+02
7.260597059705970423e+03,1.129424502287545664e+02
7.260600060006000604e+03,1.114530217640251664e+02
7.260603060306030784e+03,1.099701256326548844e+02
7.260606060606060964e+03,1.084938516809132238e+02
7.260609060906090235e+03,1.070242893542869353e+02
7.260612061206120416e+03,1.055615276902810109e+02
7.260615061506150596e+03,1.041056553156965947e+02
7.260618061806180776e+03,1.026567604394778357e+02
7.260621062106210957e+03,1.012149308478130507e+02
7.260624062406240228e+03,9.978025389925069533e+01
7.260627062706270408e+03,9.835281651766841549e+01
7.260630063006300588e+03,9.693270518961602988e+01
7.260633063306330769e+03,9.552000595733362331e+01
7.260636063606360949e+03,9.411480441397453944e+01
7.260639063906390220e+03,9.271718569884174599e+01
7.260642064206420400e+03,9.132723449053710851e+01
7.260645064506450581e+03,8.994503500437312482e+01
7.260648064806480761e+03,8.857067098557267570e+01
7.260651065106510941e+03,8.720422570462088174e+01
7.260654065406540212e+03,8.584578195262982092e+01
7.260657065706570393e+03,8.449542203467751733e+01
7.260660066006600573e+03,8.315322776729257725e+01
7.260663066306630753e+03,8.181928047184692332e+01
7.260666066606660934e+03,8.049366097004174492e+01
7.260669066906691114e+03,7.917644957901092084e+01
7.260672067206720385e+03,7.786772610684974438e+01
7.260675067506750565e+03,7.656756984619566708e+01
7.260678067806780746e+03,7.527605957180395535e+01
7.260681068106810926e+03,7.399327353418561870e+01
7.260684068406841106e+03,7.271928945526454413e+01
7.260687068706870377e+03,7.145418452405004928e+01
7.260690069006900558e+03,7.019803539042941054e+01
7.260693069306930738e+03,6.895091816282437946e+01
7.260696069606960918e+03,6.771290840204333961e+01
7.260699069906991099e+03,6.648408111708810964e+01
7.260702070207020370e+03,6.526451076097742998e+01
7.260705070507050550e+03,6.405427122476011448e+01
7.260708070807080730e+03,6.285343583525616395e+01
7.260711071107110911e+03,6.166207734913273697e+01
7.260714071407141091e+03,6.048026794886635571e+01
7.260717071707170362e+03,5.930807923872421838e+01
7.260720072007200542e+03,5.814558223900681355e+01
7.260723072307230723e+03,5.699284738387709126e+01
7.260726072607260903e+03,5.584994451566872442e+01
7.260729072907291084e+03,5.471694288101126347e+01
7.260732073207320354e+03,5.359391112697345960e+01
7.260735073507350535e+03,5.248091729554550255e+01
7.260738073807380715e+03,5.137802882155887119e+01
7.260741074107410896e+03,5.028531252723588807e+01
7.260744074407441076e+03,4.920283461848311646e+01
7.260747074707470347e+03,4.813066068120338059e+01
7.260750075007500527e+03,4.706885567602490994e+01
7.260753075307530708e+03,4.601748393631614675e+01
7.260756075607560888e+03,4.497660916298405454e+01
7.260759075907591068e+03,4.394629442094153404e+01
7.260762076207620339e+03,4.292660213559380367e+01
7.260765076507650519e+03,4.191759408782301932e+01
7.260768076807680700e+03,4.091933141209960922e+01
7.260771077107710880e+03,3.993187459153863728e+01
7.260774077407741061e+03,3.895528345454592056e+01
7.260777077707770331e+03,3.798961717148434758e+01
7.260780078007800512e+03,3.703493424992096550e+01
7.260783078307830692e+03,3.609129253283866490e+01
7.260786078607860873e+03,3.515874919395731979e+01
7.260789078907891053e+03,3.423736073456404227e+01
7.260792079207921233e+03,3.332718298008993685e+01
7.260795079507950504e+03,3.242827107699843481e+01
7.260798079807980685e+03,3.154067948835763602e+01
7.260801080108010865e+03,3.066446199217527280e+01
7.260804080408041045e+03,2.979967167704709041e+01
7.260807080708071226e+03,2.894636093921448960e+01
7.260810081008100497e+03,2.810458147964339304e+01
7.260813081308130677e+03,2.727438429987445545e+01
7.260816081608160857e+03,2.645581970046407605e+01
7.260819081908191038e+03,2.564893727691261560e+01
7.260822082208221218e+03,2.485378591691628358e+01
7.260825082508250489e+03,2.407041379764094557e+01
7.260828082808280669e+03,2.329886838185673525e+01
7.260831083108310850e+03,2.253919641648724337e+01
7.260834083408341030e+03,2.179144392882365011e+01
7.260837083708371210e+03,2.105565622397546477e+01
7.260840084008400481e+03,2.033187788234289428e+01
7.260843084308430662e+03,1.962015275604191089e+01
7.260846084608460842e+03,1.892052396756386301e+01
7.260849084908491022e+03,1.823303390628139198e+01
7.260852085208521203e+03,1.755772422610127492e+01
7.260855085508550474e+03,1.689463584313998723e+01
7.260858085808580654e+03,1.624380893244428847e+01
7.260861086108610834e+03,1.560528292676306350e+01
7.260864086408641015e+03,1.497909651335054626e+01
7.260867086708671195e+03,1.436528763182502288e+01
7.260870087008700466e+03,1.376389347205066827e+01
7.260873087308730646e+03,1.317495047115879103e+01
7.260876087608760827e+03,1.259849431243400275e+01
7.260879087908791007e+03,1.203455992241919503e+01
7.260882088208821187e+03,1.148318146898368219e+01
7.260885088508850458e+03,1.094439235941428379e+01
7.260888088808880639e+03,1.041822523774193954e+01
7.260891089108910819e+03,9.904711983743668569e+00
7.260894089408940999e+03,9.403883710353941439e+00
7.260897089708971180e+03,8.915770761944893152e+00
7.260900090009000451e+03,8.440402712629868631e+00
7.260903090309030631e+03,7.977808363899144162e+00
7.260906090609060811e+03,7.528015743739414845e+00
7.260909090909090992e+03,7.091052104355432206e+00
7.260912091209121172e+03,6.666943920664756718e+00
7.260915091509151353e+03,6.255716888693831912e+00
7.260918091809180623e+03,5.857395924139736643e+00
7.260921092109210804e+03,5.472005160381677058e+00
7.260924092409240984e+03,5.099567947743130603e+00
7.260927092709271164e+03,4.740106851590241810e+00
7.260930093009301345e+03,4.393643651087350221e+00
7.260933093309330616e+03,4.060199337976428957e+00
7.260936093609360796e+03,3.739794114905012901e+00
7.260939093909390976e+03,3.432447394808507024e+00
7.260942094209421157e+03,3.138177799325803541e+00
7.260945094509451337e+03,2.857003157773975843e+00
7.260948094809480608e+03,2.588940506147391574e+00
7.260951095109510788e+03,2.334006085764522176e+00
7.260954095409540969e+03,2.092215342771259312e+00
7.260957095709571149e+03,1.863582926876263146e+00
7.260960096009601330e+03,1.648122690546455216e+00
7.260963096309630600e+03,1.445847688227167804e+00
7.260966096609660781e+03,1.256770175309756210e+00
7.260969096909690961e+03,1.080901607757144500e+00
7.260972097209721142e+03,9.182526411603630923e-01
7.260975097509751322e+03,7.688331301562744136e-01
7.260978097809780593e+03,6.326521278697619932e-01
7.260981098109810773e+03,5.097178852041377439e-01
7.260984098409840954e+03,4.000378505889181091e-01
7.260987098709871134e+03,3.036186693593529995e-01
7.260990099009901314e+03,2.204661833970897045e-01
7.260993099309930585e+03,1.505854307954962445e-01
7.260996099609960766e+03,9.398064547352298626e-02
7.260999099909990946e+03,5.065525704646194061e-02
7.261002100210021126e+03,2.061189052922240972e-02
7.261005100510051307e+03,3.852366200663842610e-03
7.261008100810080578e+03,3.776994921506143734e-04
7.261011101110110758e+03,1.018810092603571887e-02
7.261014101410140938e+03,3.328297610908795973e-02
7.261017101710171119e+03,6.966092576026805538e-02
7.261020102010201299e+03,1.193197457986821808e-01
7.261023102310230570e+03,1.822564274559521635e-01
7.261026102610260750e+03,2.584671575388348130e-01
7.261029102910290931e+03,3.479473185458518136e-01
7.261032103210321111e+03,4.506914890192993961e-01
7.261035103510351291e+03,5.666934438566757493e-01
7.261038103810381472e+03,6.959461546878135119e-01
7.261041104110410743e+03,8.384417902556129398e-01
7.261044104410440923e+03,9.941717170671626747e-01
7.261047104710471103e+03,1.163126499657866741e+00
7.261050105010501284e+03,1.345295901331638566e+00
7.261053105310531464e+03,1.540668884740180378e+00
7.261056105610560735e+03,1.749233612486342571e+00
7.261059105910590915e+03,1.970977448098280904e+00
7.261062106210621096e+03,2.205886956415693323e+00
7.261065106510651276e+03,2.453947904652808987e+00
7.261068106810681456e+03,2.715145263199466363e+00
7.261071107110710727e+03,2.989463206446528520e+00
7.261074107410740908e+03,3.276885114081407924e+00
7.261077107710771088e+03,3.577393571596161337e+00
7.261080108010801268e+03,3.890970371671114147e+00
7.261083108310831449e+03,4.217596515196998297e+00
7.261086108610860720e+03,4.557252212321023066e+00
7.261089108910890900e+03,4.909916884061784614e+00
7.261092109210921080e+03,5.275569162938299250e+00
7.261095109510951261e+03,5.654186894672536212e+00
7.261098109810981441e+03,6.045747139430733164e+00
7.261101110111010712e+03,6.450226173088700499e+00
7.261104110411040892e+03,6.867599489163589865e+00
7.261107110711071073e+03,7.297841799563057563e+00
7.261110111011101253e+03,7.740927036603884481e+00
7.261113111311131433e+03,8.196828354470794054e+00
7.261116111611160704e+03,8.665518130699028987e+00
7.261119111911190885e+03,9.146967968419945194e+00
7.261122112211221065e+03,9.641148697229294129e+00
7.261125112511251245e+03,1.014803037551888387e+01
7.261128112811281426e+03,1.066758229215066400e+01
7.261131113111310697e+03,1.119977296815411805e+01
7.261134113411340877e+03,1.174457015928273584e+01
7.261137113711371057e+03,1.230194085699962336e+01
7.261140114011401238e+03,1.287185129111900395e+01
7.261143114311431418e+03,1.345426693169274301e+01
7.261146114611461599e+03,1.404915249110264597e+01
7.261149114911490869e+03,1.465647192601233151e+01
7.261152115211521050e+03,1.527618844029125533e+01
7.261155115511551230e+03,1.590826448613961830e+01
7.261158115811581411e+03,1.655266176709577053e+01
7.261161116111611591e+03,1.720934124017451339e+01
7.261164116411640862e+03,1.787826311802790968e+01
7.261167116711671042e+03,1.855938687217079064e+01
7.261170117011701223e+03,1.925267123421959070e+01
7.261173117311731403e+03,1.995807419920021175e+01
7.261176117611761583e+03,2.067555302789207516e+01
7.261179117911790854e+03,2.140506424919463058e+01
7.261182118211821034e+03,2.214656366364945228e+01
7.261185118511851215e+03,2.290000634479138242e+01
7.261188118811881395e+03,2.366534664275137700e+01
7.261191119111911576e+03,2.444253818680314083e+01
7.261194119411940846e+03,2.523153388793165064e+01
