Time (BJD_TBD - 2450000), L_total/L_star (ppm)
7.260000000000000000e+03,1.451438606939635292e+03
7.260003000300030180e+03,1.446793261119029694e+03
7.260006000600060361e+03,1.442089374688045382e+03
7.260009000900089632e+03,1.437327566227378384e+03
7.260012001200119812e+03,1.432508462127748089e+03
7.260015001500149992e+03,1.427632696507356741e+03
7.260018001800180173e+03,1.422700911113800430e+03
7.260021002100210353e+03,1.417713755232043695e+03
7.260024002400239624e+03,1.412671885591393448e+03
7.260027002700269804e+03,1.407575966263715145e+03
7.260030003000299985e+03,1.402426668575861413e+03
7.260033003300330165e+03,1.397224671005781602e+03
7.260036003600360345e+03,1.391970659085193347e+03
7.260039003900389616e+03,1.386665325301316898e+03
7.260042004200419797e+03,1.381309368989526547e+03
7.260045004500449977e+03,1.375903496241098082e+03
7.260048004800480157e+03,1.370448419793901394e+03
7.260051005100510338e+03,1.364944858930136206e+03
7.260054005400539609e+03,1.359393539373207659e+03
7.260057005700569789e+03,1.353795193175215672e+03
7.260060006000599969e+03,1.348150558620372294e+03
7.260063006300630150e+03,1.342460380110693450e+03
7.260066006600660330e+03,1.336725408059190386e+03
7.260069006900690511e+03,1.330946398780510663e+03
7.260072007200719781e+03,1.325124114382493872e+03
7.260075007500749962e+03,1.319259322648039188e+03
7.260078007800780142e+03,1.313352796933810623e+03
7.260081008100810323e+03,1.307405316050501369e+03
7.260084008400840503e+03,1.301417664151107147e+03
7.260087008700869774e+03,1.295390630618500381e+03
7.260090009000899954e+03,1.289325009943104078e+03
7.260093009300930134e+03,1.283221601618097111e+03
7.260096009600960315e+03,1.277081210015648367e+03
7.260099009900990495e+03,1.270904644271560755e+03
7.260102010201019766e+03,1.264692718169296995e+03
7.260105010501049946e+03,1.258446250013908866e+03
7.260108010801080127e+03,1.252166062524155677e+03
7.260111011101110307e+03,1.245852982705170916e+03
7.260114011401140488e+03,1.239507841729915981e+03
7.260117011701169758e+03,1.233131474820097992e+03
7.260120012001199939e+03,1.226724721116831915e+03
7.260123012301230119e+03,1.220288423570083523e+03
7.260126012601260300e+03,1.213823428808250810e+03
7.260129012901290480e+03,1.207330587016879235e+03
7.260132013201319751e+03,1.200810751816920174e+03
7.260135013501349931e+03,1.194264780132617034e+03
7.260138013801380112e+03,1.187693532078696762e+03
7.260141014101410292e+03,1.181097870827358520e+03
7.260144014401440472e+03,1.174478662484705865e+03
7.260147014701469743e+03,1.167836775966817868e+03
7.260150015001499924e+03,1.161173082865349215e+03
7.260153015301530104e+03,1.154488457332906137e+03
7.260156015601560284e+03,1.147783775947943468e+03
7.260159015901590465e+03,1.141059917589386259e+03
7.260162016201619736e+03,1.134317763310977170e+03
7.260165016501649916e+03,1.127558196205104196e+03
7.260168016801680096e+03,1.120782101286799389e+03
7.260171017101710277e+03,1.113990365357049313e+03
7.260174017401740457e+03,1.107183876876085151e+03
7.260177017701769728e+03,1.100363525836486360e+03
7.260180018001799908e+03,1.093530203625742161e+03
7.260183018301830089e+03,1.086684802909322798e+03
7.260186018601860269e+03,1.079828217492918611e+03
7.260189018901890449e+03,1.072961342194878853e+03
7.260192019201920630e+03,1.066085072716462491e+03
7.260195019501949901e+03,1.059200305514089905e+03
7.260198019801980081e+03,1.052307937661067626e+03
7.260201020102010261e+03,1.045408866730137788e+03
7.260204020402040442e+03,1.038503990655117377e+03
7.260207020702070622e+03,1.031594207602949609e+03
7.260210021002099893e+03,1.024680415845772131e+03
7.260213021302130073e+03,1.017763513622522623e+03
7.260216021602160254e+03,1.010844399021543040e+03
7.260219021902190434e+03,1.003923969842294582e+03
7.260222022202220614e+03,9.970031234676214353e+02
7.260225022502249885e+03,9.900827567361236561e+02
7.260228022802280066e+03,9.831637658041577197e+02
7.260231023102310246e+03,9.762470460289561061e+02
7.260234023402340426e+03,9.693334918309265049e+02
7.260237023702370607e+03,9.624239965666192802e+02
7.260240024002399878e+03,9.555194524018855873e+02
7.260243024302430058e+03,9.486207501747933293e+02
7.260246024602460238e+03,9.417287792797060320e+02
7.260249024902490419e+03,9.348444275306885629e+02
7.260252025202520599e+03,9.279685810356540969e+02
7.260255025502549870e+03,9.211021240707926836e+02
7.260258025802580050e+03,9.142459389449132914e+02
7.260261026102610231e+03,9.074009058849296707e+02
7.260264026402640411e+03,9.005679029008801990e+02
7.260267026702670591e+03,8.937478056617350148e+02
7.260270027002699862e+03,8.869414873715696785e+02
7.260273027302730043e+03,8.801498186358376188e+02
7.260276027602760223e+03,8.733736673487061353e+02
7.260279027902790403e+03,8.666138985601958211e+02
7.260282028202820584e+03,8.598713743541147778e+02
7.260285028502849855e+03,8.531469537264460996e+02
7.260288028802880035e+03,8.464414924540562879e+02
7.260291029102910215e+03,8.397558429843055592e+02
7.260294029402940396e+03,8.330908543048076353e+02
7.260297029702970576e+03,8.264473718239537448e+02
7.260300030002999847e+03,8.198262372519704968e+02
7.260303030303030027e+03,8.132282884725552776e+02
7.260306030603060208e+03,8.066543594351868478e+02
7.260309030903090388e+03,8.001052800279883286e+02
7.260312031203120569e+03,7.935818759612914164e+02
7.260315031503150749e+03,7.870849686498540905e+02
7.260318031803180020e+03,7.806153750977227901e+02
7.260321032103210200e+03,7.741739077740028279e+02
7.260324032403240381e+03,7.677613745089563508e+02
7.260327032703270561e+03,7.613785783712160082e+02
7.260330033003300741e+03,7.550263175555728594e+02
7.260333033303330012e+03,7.487053852714841469e+02
7.260336033603360193e+03,7.424165696228035358e+02
7.260339033903390373e+03,7.361606535074712383e+02
7.260342034203420553e+03,7.299384144988538310e+02
7.260345034503450734e+03,7.237506247375239354e+02
7.260348034803480004e+03,7.175980508238305902e+02
7.260351035103510185e+03,7.114814537020362195e+02
7.260354035403540365e+03,7.054015885639831822e+02
7.260357035703570546e+03,6.993592047350031180e+02
7.260360036003600726e+03,6.933550455700892599e+02
7.260363036303629997e+03,6.873898483509383368e+02
7.260366036603660177e+03,6.814643441749230988e+02
7.260369036903690358e+03,6.755792578631024980e+02
7.260372037203720538e+03,6.697353078511213198e+02
7.260375037503750718e+03,6.639332060901700743e+02
7.260378037803779989e+03,6.581736579488817824e+02
7.260381038103810170e+03,6.524573621075494430e+02
7.260384038403840350e+03,6.467850104708329582e+02
7.260387038703870530e+03,6.411572880640541143e+02
7.260390039003900711e+03,6.355748729393096710e+02
7.260393039303929982e+03,6.300384360825962631e+02
7.260396039603960162e+03,6.245486413136599140e+02
7.260399039903990342e+03,6.191061452037345134e+02
7.260402040204020523e+03,6.137115969776108386e+02
7.260405040504050703e+03,6.083656384252599310e+02
7.260408040804079974e+03,6.030689038145256973e+02
7.260411041104110154e+03,5.978220197969814080e+02
7.260414041404140335e+03,5.926256053310099787e+02
7.260417041704170515e+03,5.874802715900070780e+02
7.260420042004200695e+03,5.823866218798436876e+02
7.260423042304230876e+03,5.773452515559334870e+02
7.260426042604260147e+03,5.723567479430415688e+02
7.260429042904290327e+03,5.674216902487952439e+02
7.260432043204320507e+03,5.625406494935623414e+02
7.260435043504350688e+03,5.577141884264547116e+02
7.260438043804380868e+03,5.529428614502020309e+02
7.260441044104410139e+03,5.482272145472124976e+02
7.260444044404440319e+03,5.435677851998165124e+02
7.260447044704470500e+03,5.389651023261011460e+02
7.260450045004500680e+03,5.344196862027550878e+02
7.260453045304530860e+03,5.299320483964222603e+02
7.260456045604560131e+03,5.255026916962956420e+02
7.260459045904590312e+03,5.211321100413767908e+02
7.260462046204620492e+03,5.168207884625130646e+02
7.260465046504650672e+03,5.125692030123610721e+02
7.260468046804680853e+03,5.083778207034740717e+02
7.260471047104710124e+03,5.042470994476759074e+02
7.260474047404740304e+03,5.001774879906010938e+02
7.260477047704770484e+03,4.961694258601500565e+02
7.260480048004800665e+03,4.922233433038240378e+02
7.260483048304830845e+03,4.883396612337741090e+02
7.260486048604860116e+03,4.845187911731761119e+02
7.260489048904890296e+03,4.807611351982833980e+02
7.260492049204920477e+03,4.770670858934979606e+02
7.260495049504950657e+03,4.734370262962956417e+02
7.260498049804980838e+03,4.698713298494389505e+02
7.260501050105010108e+03,4.663703603545466194e+02
7.260504050405040289e+03,4.629344719218653381e+02
7.260507050705070469e+03,4.595640089321221922e+02
7.260510051005100649e+03,4.562593059892360543e+02
7.260513051305130830e+03,4.530206878798651360e+02
7.260516051605160101e+03,4.498484695343390740e+02
7.260519051905190281e+03,4.467429559843227480e+02
7.260522052205220461e+03,4.437044423315933841e+02
7.260525052505250642e+03,4.407332137087012143e+02
7.260528052805280822e+03,4.378295452459948933e+02
7.260531053105310093e+03,4.349937020400545862e+02
7.260534053405340273e+03,4.322259391193933880e+02
7.260537053705370454e+03,4.295265014202724387e+02
7.260540054005400634e+03,4.268956237554447739e+02
7.260543054305430815e+03,4.243335307887721228e+02
7.260546054605460995e+03,4.218404370105249086e+02
7.260549054905490266e+03,4.194165467149583151e+02
7.260552055205520446e+03,4.170620539758038490e+02
7.260555055505550627e+03,4.147771426306465514e+02
7.260558055805580807e+03,4.125619862594961091e+02
7.260561056105610987e+03,4.104167481686266683e+02
7.260564056405640258e+03,4.083415813758576292e+02
7.260567056705670439e+03,4.063366285942881291e+02
7.260570057005700619e+03,4.044020222238709152e+02
7.260573057305730799e+03,4.025378843382457035e+02
7.260576057605760980e+03,4.007443266763222027e+02
7.260579057905790251e+03,3.990214506353067918e+02
7.260582058205820431e+03,3.973693472627254550e+02
7.260585058505850611e+03,3.957880972552211460e+02
7.260588058805880792e+03,3.942777709536799762e+02
7.260591059105910972e+03,3.928384283425776857e+02
7.260594059405940243e+03,3.914701190507676074e+02
7.260597059705970423e+03,3.901728823518027980e+02
7.260600060006000604e+03,3.889467471699551879e+02
7.260603060306030784e+03,3.877917320836361341e+02
7.260606060606060964e+03,3.867078453324938891e+02
7.260609060906090235e+03,3.856950848259496638e+02
7.260612061206120416e+03,3.847534381517972406e+02
7.260615061506150596e+03,3.838828825894146917e+02
7.260618061806180776e+03,3.830833851214480887e+02
7.260621062106210957e+03,3.823549024486194980e+02
7.260624062406240228e+03,3.816973810059654397e+02
7.260627062706270408e+03,3.811107569796619146e+02
7.260630063006300588e+03,3.805949563273732679e+02
7.260633063306330769e+03,3.801498947981315837e+02
7.260636063606360949e+03,3.797754779547900625e+02
7.260639063906390220e+03,3.794716011978848655e+02
7.260642064206420400e+03,3.792381497906045524e+02
7.260645064506450581e+03,3.790749988861896327e+02
7.260648064806480761e+03,3.789820135559138521e+02
7.260651065106510941e+03,3.789590488190820565e+02
7.260654065406540212e+03,3.790059496744128182e+02
7.260657065706570393e+03,3.791225511330360405e+02
7.260660066006600573e+03,3.793086782528315553e+02
7.260663066306630753e+03,3.795641461743871332e+02
7.260666066606660934e+03,3.798887601584100366e+02
7.260669066906691114e+03,3.802823156246294616e+02
7.260672067206720385e+03,3.807445981920262739e+02
7.260675067506750565e+03,3.812753837212704866e+02
7.260678067806780746e+03,3.818744383571994376e+02
7.260681068106810926e+03,3.825415185741383084e+02
7.260684068406841106e+03,3.832763712220016714e+02
7.260687068706870377e+03,3.840787335737132366e+02
7.260690069006900558e+03,3.849483333753110514e+02
7.260693069306930738e+03,3.858848888950263358e+02
7.260696069606960918e+03,3.868881089761933367e+02
7.260699069906991099e+03,3.879576930903848506e+02
7.260702070207020370e+03,3.890933313918294516e+02
7.260705070507050550e+03,3.902947047749717058e+02
7.260708070807080730e+03,3.915614849299544744e+02
7.260711071107110911e+03,3.928933344028990859e+02
7.260714071407141091e+03,3.942899066558564982e+02
7.260717071707170362e+03,3.957508461279998073e+02
7.260720072007200542e+03,3.972757883003995971e+02
7.260723072307230723e+03,3.988643597576912043e+02
7.260726072607260903e+03,4.005161782554723118e+02
7.260729072907291084e+03,4.022308527868301553e+02
7.260732073207320354e+03,4.040079836500570991e+02
7.260735073507350535e+03,4.058471625203787880e+02
7.260738073807380715e+03,4.077479725175582530e+02
7.260741074107410896e+03,4.097099882801360877e+02
7.260744074407441076e+03,4.117327760382637507e+02
7.260747074707470347e+03,4.138158936876712346e+02
7.260750075007500527e+03,4.159588908680529471e+02
7.260753075307530708e+03,4.181613090363415495e+02
7.260756075607560888e+03,4.204226815474885370e+02
7.260759075907591068e+03,4.227425337333108928e+02
7.260762076207620339e+03,4.251203829824132185e+02
7.260765076507650519e+03,4.275557388249129644e+02
7.260768076807680700e+03,4.300481030110964866e+02
7.260771077107710880e+03,4.325969695984096006e+02
7.260774077407741061e+03,4.352018250360029583e+02
7.260777077707770331e+03,4.378621482502912272e+02
7.260780078007800512e+03,4.405774107356715490e+02
7.260783078307830692e+03,4.433470766382536681e+02
7.260786078607860873e+03,4.461706028487097910e+02
7.260789078907891053e+03,4.490474390921802978e+02
7.260792079207921233e+03,4.519770280200239654e+02
7.260795079507950504e+03,4.549588053016880167e+02
7.260798079807980685e+03,4.579921997221384231e+02
7.260801080108010865e+03,4.610766332712379949e+02
7.260804080408041045e+03,4.642115212431353939e+02
7.260807080708071226e+03,4.673962723321282056e+02
7.260810081008100497e+03,4.706302887293944082e+02
7.260813081308130677e+03,4.739129662255844551e+02
7.260816081608160857e+03,4.772436943045247517e+02
7.260819081908191038e+03,4.806218562476151988e+02
7.260822082208221218e+03,4.840468292342444556e+02
7.260825082508250489e+03,4.875179844429940204e+02
7.260828082808280669e+03,4.910346871589866282e+02
7.260831083108310850e+03,4.945962968715437000e+02
7.260834083408341030e+03,3.700697743010967429e+02
7.260837083708371210e+03,3.737142026322744641e+02
7.260840084008400481e+03,3.774021947368428300e+02
7.260843084308430662e+03,3.811330880352292070e+02
7.260846084608460842e+03,3.849062146779591558e+02
7.260849084908491022e+03,3.887209016588039390e+02
7.260852085208521203e+03,3.925764709230857648e+02
7.260855085508550474e+03,3.964722394766171760e+02
7.260858085808580654e+03,4.004075195012557629e+02
7.260861086108610834e+03,4.043816184593119942e+02
7.260864086408641015e+03,4.083938392104118407e+02
7.260867086708671195e+03,4.124434801231130336e+02
7.260870087008700466e+03,4.165298351870728197e+02
7.260873087308730646e+03,4.206521941320309566e+02
7.260876087608760827e+03,4.248098425349792819e+02
7.260879087908791007e+03,4.290020619402765192e+02
7.260882088208821187e+03,4.332281299741344469e+02
7.260885088508850458e+03,4.374873204595745051e+02
7.260888088808880639e+03,5.699085638622675560e+02
7.260891089108910819e+03,5.742258393942305474e+02
7.260894089408940999e+03,5.785734253313967201e+02
7.260897089708971180e+03,5.829505815258598886e+02
7.260900090009000451e+03,5.873565646209121951e+02
7.260903090309030631e+03,5.917906281754494557e+02
7.260906090609060811e+03,5.962520227754108646e+02
7.260909090909090992e+03,6.007399961589529767e+02
7.260912091209121172e+03,6.052537933353185053e+02
7.260915091509151353e+03,6.097926567053858662e+02
7.260918091809180623e+03,6.143558261811562033e+02
7.260921092109210804e+03,6.189425393124743096e+02
7.260924092409240984e+03,6.235520314002004625e+02
7.260927092709271164e+03,6.281835356234740857e+02
7.260930093009301345e+03,6.328362831603252516e+02
7.260933093309330616e+03,6.375095033084745637e+02
7.260936093609360796e+03,6.422024236134396915e+02
7.260939093909390976e+03,6.469142699826606986e+02
7.260942094209421157e+03,6.516442668139583247e+02
7.260945094509451337e+03,6.563916371170761295e+02
7.260948094809480608e+03,6.611556026353204061e+02
7.260951095109510788e+03,6.659353839745475625e+02
7.260954095409540969e+03,6.707302007177981977e+02
7.260957095709571149e+03,6.755392715544484190e+02
7.260960096009601330e+03,6.803618144022033221e+02
7.260963096309630600e+03,6.851970465291027494e+02
7.260966096609660781e+03,6.900441846828844064e+02
7.260969096909690961e+03,6.949024452056802374e+02
7.260972097209721142e+03,6.997710441633515757e+02
7.260975097509751322e+03,7.046491974674601124e+02
7.260978097809780593e+03,7.095361209971641756e+02
7.260981098109810773e+03,7.144310307284454211e+02
7.260984098409840954e+03,7.193331428484265189e+02
7.260987098709871134e+03,7.242416738843817257e+02
7.260990099009901314e+03,7.291558408252093386e+02
7.260993099309930585e+03,7.340748612427408943e+02
7.260996099609960766e+03,7.389979534203320100e+02
7.260999099909990946e+03,7.439243364663495868e+02
7.261002100210021126e+03,7.488532304423571304e+02
7.261005100510051307e+03,7.537838564836166597e+02
7.261008100810080578e+03,7.587154369193345929e+02
7.261011101110110758e+03,7.636471954001152653e+02
7.261014101410140938e+03,7.685783570101798432e+02
7.261017101710171119e+03,7.735081483942228715e+02
7.261020102010201299e+03,7.784357978764730888e+02
7.261023102310230570e+03,7.833605355794126126e+02
7.261026102610260750e+03,7.882815935495943904e+02
7.261029102910290931e+03,7.931982058681533090e+02
7.261032103210321111e+03,7.981096087758436397e+02
7.261035103510351291e+03,8.030150407901967355e+02
7.261038103810381472e+03,8.079137428237305585e+02
7.261041104110410743e+03,8.128049583002272129e+02
7.261044104410440923e+03,8.176879332779427614e+02
7.261047104710471103e+03,8.225619165575036504e+02
7.261050105010501284e+03,8.274261598041202888e+02
7.261053105310531464e+03,8.322799176618578940e+02
7.261056105610560735e+03,8.371224478673782414e+02
7.261059105910590915e+03,8.419530113704518044e+02
7.261062106210621096e+03,8.467708724392122122e+02
7.261065106510651276e+03,8.515752987794965065e+02
7.261068106810681456e+03,8.563655616462194757e+02
7.261071107110710727e+03,8.611409359541435151e+02
7.261074107410740908e+03,8.659007003952228843e+02
7.261077107710771088e+03,8.706441375408110162e+02
7.261080108010801268e+03,8.753705339576607685e+02
7.261083108310831449e+03,8.800791803159761457e+02
7.261086108610860720e+03,8.847693714967766709e+02
7.261089108910890900e+03,8.894404067056226495e+02
7.261092109210921080e+03,8.940915895713783357e+02
7.261095109510951261e+03,8.987222282584226605e+02
7.261098109810981441e+03,9.033316355709617937e+02
7.261101110111010712e+03,9.079191290565728423e+02
7.261104110411040892e+03,9.124840311158708346e+02
7.261107110711071073e+03,9.170256690974424600e+02
7.261110111011101253e+03,9.215433754058403792e+02
7.261113111311131433e+03,9.260364876017489451e+02
7.261116111611160704e+03,9.305043485013070494e+02
7.261119111911190885e+03,9.349463062812976659e+02
7.261122112211221065e+03,9.393617145698835884e+02
7.261125112511251245e+03,9.437499325499679799e+02
7.261128112811281426e+03,9.481103250548285359e+02
7.261131113111310697e+03,9.524422626628368107e+02
7.261134113411340877e+03,9.567451217977658189e+02
7.261137113711371057e+03,9.610182848149762549e+02
7.261140114011401238e+03,9.652611400997474220e+02
7.261143114311431418e+03,9.694730821580096745e+02
7.261146114611461599e+03,9.736535117073632364e+02
7.261149114911490869e+03,9.778018357657991828e+02
7.261152115211521050e+03,9.819174677456359177e+02
7.261155115511551230e+03,9.859998275338147096e+02
7.261158115811581411e+03,9.900483415836968106e+02
7.261161116111611591e+03,9.940624429994567208e+02
7.261164116411640862e+03,9.980415716194279412e+02
7.261167116711671042e+03,1.001985174104334305e+03
7.261170117011701223e+03,1.005892704012333752e+03
7.261173117311731403e+03,1.009763621884985014e+03
7.261176117611761583e+03,1.013597395326002129e+03
7.261179117911790854e+03,1.017393499078901414e+03
7.261182118211821034e+03,1.021151415109196705e+03
7.261185118511851215e+03,1.024870632673901355e+03
7.261188118811881395e+03,1.028550648401335820e+03
7.261191119111911576e+03,1.032190966363943517e+03
7.261194119411940846e+03,1.035791098149943309e+03
