Time (BJD_TBD - 2450000), L_d/L_star (ppm)
9.891095520833507180e+03,2.156638032702632586e+02
9.891098214161867872e+03,2.158026378003326897e+02
9.891100907490228565e+03,2.159396320672780973e+02
9.891103600818589257e+03,2.160747836787032838e+02
9.891106294146949949e+03,2.162080902743909405e+02
9.891108987475310641e+03,2.163395495263445412e+02
9.891111680803671334e+03,2.164691591388283030e+02
9.891114374132032026e+03,2.165969168484077159e+02
9.891117067460392718e+03,2.167228204239889067e+02
9.891119760788751591e+03,2.168468676667745001e+02
9.891122454117112284e+03,2.169690564106357442e+02
9.891125147445472976e+03,2.170893845216479860e+02
9.891127840773833668e+03,2.172078498984639054e+02
9.891130534102194360e+03,2.173244504722661077e+02
9.891133227430555053e+03,2.174391842068031337e+02
9.891135920758915745e+03,2.175520490984249022e+02
9.891138614087276437e+03,2.176630431761180091e+02
9.891141307415637129e+03,2.177721645015398906e+02
9.891144000743997822e+03,2.178794111690527302e+02
9.891146694072358514e+03,2.179847813057567407e+02
9.891149387400719206e+03,2.180882730715229627e+02
9.891152080729079898e+03,2.181898846590252958e+02
9.891154774057440591e+03,2.182896142937720185e+02
9.891157467385801283e+03,2.183874602341369950e+02
9.891160160714161975e+03,2.184834207713898024e+02
9.891162854042522667e+03,2.185774942297257724e+02
9.891165547370883360e+03,2.186696789662952085e+02
9.891168240699242233e+03,2.187599733711716397e+02
9.891170934027602925e+03,2.188483758676228490e+02
9.891173627355963617e+03,2.189348849117721443e+02
9.891176320684324310e+03,2.190194989928707514e+02
9.891179014012685002e+03,2.191022166332626853e+02
9.891181707341045694e+03,2.191830363884102155e+02
9.891184400669406386e+03,2.192619568469193609e+02
9.891187093997767079e+03,2.193389766305645878e+02
9.891189787326127771e+03,2.194140943943125137e+02
9.891192480654488463e+03,2.194873088263458385e+02
9.891195173982849155e+03,2.195586186480860249e+02
9.891197867311209848e+03,2.196280226142155527e+02
9.891200560639570540e+03,2.196955195126998035e+02
9.891203253967931232e+03,2.197611081648083200e+02
9.891205947296291924e+03,2.198247874251350424e+02
9.891208640624652617e+03,2.198865561816186869e+02
9.891211333953013309e+03,2.199464133555620435e+02
9.891214027281374001e+03,2.200043579016505930e+02
9.891216720609732874e+03,2.200603888079339470e+02
9.891219413938093567e+03,2.201145050959932803e+02
9.891222107266454259e+03,2.201667058207315790e+02
9.891224800594814951e+03,2.202169900705426357e+02
9.891227493923175643e+03,2.202653569672886249e+02
9.891230187251536336e+03,2.203118056663152231e+02
9.891232880579897028e+03,2.203563353564667864e+02
9.891235573908257720e+03,2.203989452600999925e+02
9.891238267236618412e+03,2.204396346330977963e+02
9.891240960564979105e+03,2.204784027648821336e+02
9.891243653893339797e+03,2.205152489784267686e+02
9.891246347221700489e+03,2.205501726302685199e+02
9.891249040550061181e+03,2.205831731105191409e+02
9.891251733878421874e+03,2.206142498428753811e+02
9.891254427206782566e+03,2.206434022846295591e+02
9.891257120535143258e+03,2.206706299266785436e+02
9.891259813863503950e+03,2.206959322935330192e+02
9.891262507191864643e+03,2.207193089433257001e+02
9.891265200520223516e+03,2.207407594678052192e+02
9.891267893848584208e+03,2.207602834923997079e+02
9.891270587176944900e+03,0.000000000000000000e+00
9.891273280505305593e+03,0.000000000000000000e+00
9.891275973833666285e+03,0.000000000000000000e+00
9.891278667162026977e+03,0.000000000000000000e+00
9.891281360490387669e+03,0.000000000000000000e+00
9.891284053818748362e+03,0.000000000000000000e+00
9.891286747147109054e+03,0.000000000000000000e+00
9.891289440475469746e+03,0.000000000000000000e+00
9.891292133803830438e+03,0.000000000000000000e+00
9.891294827132191131e+03,0.000000000000000000e+00
9.891297520460551823e+03,0.000000000000000000e+00
9.891300213788912515e+03,0.000000000000000000e+00
9.891302907117273207e+03,0.000000000000000000e+00
9.891305600445633900e+03,0.000000000000000000e+00
9.891308293773994592e+03,0.000000000000000000e+00
9.891310987102353465e+03,0.000000000000000000e+00
9.891313680430714157e+03,0.000000000000000000e+00
9.891316373759074850e+03,0.000000000000000000e+00
9.891319067087435542e+03,2.207649529740088212e+02
9.891321760415796234e+03,2.207459201733371117e+02
9.891324453744156926e+03,2.207249607826414035e+02
9.891327147072517619e+03,2.207020751679455088e+02
9.891329840400878311e+03,2.206772637289119530e+02
9.891332533729239003e+03,2.206505268988346131e+02
9.891335227057599695e+03,2.206218651446316414e+02
9.891337920385960388e+03,2.205912789668367964e+02
9.891340613714321080e+03,2.205587688995912288e+02
9.891343307042681772e+03,2.205243355106336764e+02
9.891346000371042464e+03,2.204879794012909144e+02
9.891348693699403157e+03,2.204497012064669832e+02
9.891351387027763849e+03,2.204095015946322746e+02
9.891354080356124541e+03,2.203673812678118509e+02
9.891356773684485233e+03,2.203233409615730523e+02
9.891359467012844107e+03,2.202773814450444547e+02
9.891362160341204799e+03,2.202295035207769729e+02
9.891364853669565491e+03,2.201797080249160388e+02
9.891367546997926183e+03,2.201279958270641544e+02
9.891370240326286876e+03,2.200743678302961541e+02
9.891372933654647568e+03,2.200188249711432888e+02
9.891375626983008260e+03,2.199613682195770821e+02
9.891378320311368952e+03,2.199019985789921634e+02
9.891381013639729645e+03,2.198407170861889881e+02
9.891383706968090337e+03,2.197775248113554483e+02
9.891386400296451029e+03,2.197124228580484555e+02
9.891389093624811721e+03,2.196454123631744437e+02
9.891391786953172414e+03,2.195764944969697297e+02
9.891394480281533106e+03,2.195056704629798503e+02
9.891397173609893798e+03,2.194329414980388151e+02
9.891399866938254490e+03,2.193583088722471643e+02
9.891402560266615183e+03,2.192817738889501129e+02
9.891405253594975875e+03,2.192033378847146139e+02
9.891407946923334748e+03,2.191230022293609352e+02
9.891410640251695440e+03,2.190407683257204781e+02
9.891413333580056133e+03,2.189566376099367346e+02
9.891416026908416825e+03,2.188706115512246697e+02
9.891418720236777517e+03,2.187826916518983751e+02
9.891421413565138209e+03,2.186928794473448932e+02
9.891424106893498902e+03,2.186011765059977563e+02
9.891426800221859594e+03,2.185075844293091905e+02
9.891429493550220286e+03,2.184121048517222903e+02
9.891432186878580978e+03,2.183147394406425121e+02
9.891434880206941671e+03,2.182154898964084850e+02
9.891437573535302363e+03,2.181143579522624520e+02
9.891440266863663055e+03,2.180113453743197454e+02
9.891442960192023747e+03,2.179064539615382330e+02
9.891445653520384440e+03,2.177996855456867138e+02
9.891448346848745132e+03,2.176910419913130568e+02
9.891451040177105824e+03,2.175805251957114876e+02
9.891453733505466516e+03,2.174681370888895344e+02
9.891456426833825390e+03,2.173538796336121663e+02
9.891459120162186082e+03,2.172377548250575501e+02
9.891461813490546774e+03,2.171197646912452228e+02
9.891464506818907466e+03,2.169999112926931844e+02
9.891467200147268159e+03,2.168781967224585685e+02
9.891469893475628851e+03,2.167546231061010076e+02
9.891472586803989543e+03,2.166291926016455420e+02
9.891475280132350235e+03,2.165019073995449617e+02
9.891477973460710928e+03,2.163727697226415501e+02
9.891480666789071620e+03,2.162417818261281752e+02
9.891483360117432312e+03,2.161089459975089824e+02
9.891486053445793004e+03,2.159742645565594898e+02
9.891488746774153697e+03,2.158377398552860313e+02
9.891491440102514389e+03,2.156993742778845444e+02
9.891494133430875081e+03,2.155591702406993022e+02
9.891496826759235773e+03,2.154171301921801955e+02
9.891499520087596466e+03,2.152732566128405551e+02
9.891502213415955339e+03,2.151275520153122045e+02
9.891504906744316031e+03,2.149800189439074529e+02
9.891507600072676723e+03,2.148306599751644512e+02
9.891510293401037416e+03,2.146794777174102364e+02
9.891512986729398108e+03,2.145264748108126582e+02
9.891515680057758800e+03,2.143716539273346768e+02
9.891518373386119492e+03,2.142150177706870977e+02
9.891521066714480185e+03,2.140565690762820452e+02
9.891523760042840877e+03,2.138963106111846173e+02
9.891526453371201569e+03,2.137342451740649665e+02
9.891529146699562261e+03,2.135703755951491303e+02
9.891531840027922954e+03,2.134047047361698901e+02
9.891534533356283646e+03,2.132372354903163796e+02
9.891537226684644338e+03,2.130679707821841760e+02
9.891539920013005030e+03,2.128969135677235727e+02
9.891542613341365723e+03,2.127240668341883918e+02
9.891545306669726415e+03,2.125494336000836597e+02
9.891547999998087107e+03,2.123730169151129132e+02
9.891550693326445980e+03,2.121948198602458433e+02
9.891553386654806673e+03,2.120148455471821194e+02
9.891556079983167365e+03,2.118330971190187313e+02
9.891558773311528057e+03,2.116495777497152631e+02
9.891561466639888749e+03,2.114642906441580408e+02
9.891564159968249442e+03,2.112772390381043124e+02
9.891566853296610134e+03,2.110884261981254610e+02
9.891569546624970826e+03,2.108978554215504460e+02
9.891572239953331518e+03,2.107055300364075379e+02
9.891574933281692211e+03,2.105114534013668219e+02
9.891577626610052903e+03,2.103156289056812227e+02
9.891580319938413595e+03,2.101180599691273585e+02
9.891583013266774287e+03,2.099187500419459411e+02
9.891585706595134980e+03,2.097177026047813513e+02
9.891588399923495672e+03,2.095149211686209583e+02
9.891591093251856364e+03,2.093104092747338143e+02
9.891593786580217056e+03,2.091041704946087236e+02
9.891596479908577749e+03,2.088962084298919137e+02
9.891599173236936622e+03,2.086865267124664740e+02
9.891601866565297314e+03,2.084751290038211380e+02
9.891604559893658006e+03,2.082620189958359163e+02
9.891607253222018699e+03,2.080472004101527546e+02
9.891609946550379391e+03,2.078306769982511071e+02
9.891612639878740083e+03,2.076124525413825666e+02
9.891615333207100775e+03,2.073925308505052669e+02
9.891618026535461468e+03,2.071709157662164387e+02
9.891620719863822160e+03,2.069476111586862999e+02
9.891623413192182852e+03,2.067226209275896167e+02
9.891626106520543544e+03,2.064959490020382873e+02
9.891628799848904237e+03,2.062675993405123336e+02
9.891631493177264929e+03,2.060375759307910073e+02
9.891634186505625621e+03,2.058058827898828724e+02
9.891636879833986313e+03,2.055725239639558595e+02
9.891639573162347006e+03,2.053375035282664953e+02
9.891642266490707698e+03,2.051008255870888490e+02
9.891644959819068390e+03,2.048624942736427954e+02
9.891647653147427263e+03,2.046225137501845950e+02
9.891650346475787956e+03,2.043808882072844142e+02
9.891653039804148648e+03,2.041376218647260146e+02
9.891655733132509340e+03,2.038927189707857224e+02
9.891658426460870032e+03,2.036461838023194844e+02
9.891661119789230725e+03,2.033980206646889428e+02
9.891663813117591417e+03,2.031482338916852655e+02
9.891666506445952109e+03,2.028968278454541121e+02
9.891669199774312801e+03,2.026438069164193223e+02
9.891671893102673494e+03,2.023891755232062053e+02
9.891674586431034186e+03,2.021329381125642328e+02
9.891677279759394878e+03,2.018750991592897321e+02
9.891679973087755570e+03,2.016156631661474421e+02
9.891682666416116263e+03,2.013546346637918703e+02
9.891685359744476955e+03,2.010920182106885079e+02
9.891688053072837647e+03,2.008278183930337093e+02
9.891690746401198339e+03,2.005620398246749971e+02
9.891693439729559032e+03,2.002946871470305723e+02
9.891696133057917905e+03,2.000257650291898699e+02
9.891698826386278597e+03,1.997552781671049615e+02
9.891701519714639289e+03,1.994832312845983040e+02
9.891704213042999982e+03,1.992096291325542836e+02
9.891706906371360674e+03,1.989344764890180670e+02
9.891709599699721366e+03,1.986577781591115013e+02
9.891712293028082058e+03,1.983795389749496962e+02
9.891714986356442751e+03,1.980997637955563278e+02
9.891717679684803443e+03,1.978184575067788842e+02
9.891720373013164135e+03,1.975356250212033160e+02
9.891723066341524827e+03,1.972512712780685149e+02
9.891725759669885520e+03,1.969654012431795991e+02
9.891728452998246212e+03,1.966780199088213124e+02
9.891731146326606904e+03,1.963891322936713095e+02
9.891733839654967596e+03,1.960987434427117648e+02
9.891736532983328289e+03,1.958068584271418047e+02
9.891739226311688981e+03,1.955134823442889456e+02
9.891741919640047854e+03,1.952186203177192283e+02
9.891744612968408546e+03,1.949222774963509153e+02
9.891747306296769239e+03,1.946244590555586740e+02
9.891749999625129931e+03,1.943251701962880702e+02
9.891752692953490623e+03,1.940244161451634852e+02
9.891755386281851315e+03,1.937222021543963706e+02
9.891758079610212008e+03,1.934185335016939575e+02
9.891760772938572700e+03,1.931134154901669433e+02
9.891763466266933392e+03,1.928068534482367795e+02
9.891766159595294084e+03,1.924988527295426763e+02
9.891768852923654777e+03,1.921894187128483225e+02
9.891771546252015469e+03,1.918785568019477239e+02
9.891774239580376161e+03,1.915662724255707019e+02
9.891776932908736853e+03,1.912525710372885044e+02
9.891779626237097546e+03,1.909374581154181669e+02
9.891782319565458238e+03,1.906209391629270726e+02
9.891785012893818930e+03,1.903030197073368583e+02
9.891787706222179622e+03,1.899837053006266672e+02
9.891790399550538496e+03,1.896630015193535996e+02
9.891793092878899188e+03,1.893409139636876262e+02
9.891795786207259880e+03,1.890174482586135127e+02
9.891798479535620572e+03,1.886926100529674954e+02
9.891801172863981265e+03,1.883664050195541506e+02
9.891803866192341957e+03,1.880388388550476577e+02
9.891806559520702649e+03,1.877099172798924087e+02
9.891809252849063341e+03,1.873796460382028499e+02
9.891811946177424034e+03,1.870480308976632671e+02
9.891814639505784726e+03,1.867150776494272577e+02
9.891817332834145418e+03,1.863807921080164078e+02
9.891820026162506110e+03,1.860451801112185990e+02
9.891822719490866803e+03,1.857082475199863723e+02
9.891825412819227495e+03,1.853700002183344395e+02
9.891828106147588187e+03,1.850304441132368538e+02
9.891830799475948879e+03,1.846895851345240942e+02
9.891833492804309572e+03,1.843474292347791277e+02
9.891836186132670264e+03,1.840039823892338688e+02
9.891838879461029137e+03,1.836592505958977313e+02
9.891841572789389829e+03,1.833132398745208320e+02
9.891844266117750522e+03,1.829659562678861846e+02
9.891846959446111214e+03,1.826174058407731025e+02
9.891849652774471906e+03,1.822675946800841018e+02
9.891852346102832598e+03,1.819165288947385193e+02
9.891855039431193291e+03,1.815642146155656746e+02
9.891857732759553983e+03,1.812106579951979768e+02
9.891860426087914675e+03,1.808558652079636602e+02
9.891863119416275367e+03,1.804998424497783844e+02
9.891865812744636060e+03,1.801425959380376867e+02
9.891868506072996752e+03,1.797841319115077852e+02
9.891871199401357444e+03,1.794244566302171791e+02
9.891873892729718136e+03,1.790635763753468837e+02
9.891876586058078829e+03,1.787014974491213479e+02
9.891879279386439521e+03,1.783382261746975814e+02
9.891881972714800213e+03,1.779737688960551907e+02
9.891884666043160905e+03,1.776081319778857051e+02
9.891887359371519779e+03,1.772413218057292283e+02
9.891890052699880471e+03,1.768733447848715343e+02
9.891892746028241163e+03,1.765042073417183417e+02
9.891895439356601855e+03,1.761339159226930065e+02
9.891898132684962548e+03,1.757624769943713261e+02
9.891900826013323240e+03,1.753898970433686486e+02
9.891903519341683932e+03,1.750161825762264982e+02
9.891906212670044624e+03,1.746413401192991728e+02
9.891908905998405316e+03,1.742653762186393180e+02
9.891911599326766009e+03,1.738882974398840133e+02
9.891914292655126701e+03,1.735101103681399479e+02
9.891916985983487393e+03,1.731308216078686542e+02
9.891919679311848085e+03,1.727504377827706037e+02
9.891922372640208778e+03,1.723689655356703270e+02
9.891925065968569470e+03,1.719864115283997137e+02
9.891927759296930162e+03,1.716027824416819954e+02
9.891930452625290854e+03,1.712180849750151310e+02
9.891933145953649728e+03,1.708323258468153938e+02
9.891935839282010420e+03,1.704455117932575945e+02
9.891938532610371112e+03,1.700576495697204678e+02
9.891941225938731804e+03,1.696687459496270378e+02
9.891943919267092497e+03,1.692788077245870397e+02
9.891946612595453189e+03,1.688878417042778040e+02
9.891949305923813881e+03,1.684958547163254252e+02
9.891951999252174573e+03,1.681028536061859882e+02
9.891954692580535266e+03,1.677088452370254572e+02
9.891957385908895958e+03,1.673138364896001349e+02
9.891960079237256650e+03,1.669178342621362106e+02
9.891962772565617342e+03,1.665208454702097072e+02
9.891965465893978035e+03,1.661228770466253195e+02
9.891968159222338727e+03,1.657239359412957924e+02
9.891970852550699419e+03,1.653240291211201622e+02
9.891973545879060111e+03,1.649231635698618845e+02
9.891976239207420804e+03,1.645213462880275301e+02
9.891978932535781496e+03,1.641185842927441456e+02
9.891981625864140369e+03,1.637148846179096608e+02
9.891984319192501061e+03,1.633102543129791400e+02
9.891987012520861754e+03,1.629047004444768163e+02
9.891989705849222446e+03,1.624982300947835938e+02
9.891992399177583138e+03,1.620908503622852663e+02
9.891995092505943830e+03,1.616825683612484852e+02
9.891997785834304523e+03,1.612733912216969827e+02
9.892000479162665215e+03,1.608633260892862324e+02
9.892003172491025907e+03,1.604523801251795589e+02
9.892005865819386599e+03,1.600405605059223717e+02
9.892008559147747292e+03,1.596278744233174791e+02
9.892011252476107984e+03,1.592143290842987255e+02
9.892013945804468676e+03,1.587999317108059927e+02
9.892016639132829368e+03,1.583846895396583250e+02
9.892019332461190061e+03,1.579686098224280215e+02
9.892022025789550753e+03,1.575516998253139320e+02
9.892024719117911445e+03,1.571339668290141560e+02
9.892027412446272137e+03,1.567154181285994241e+02
9.892030105774631011e+03,1.562960610336692469e+02
9.892032799102991703e+03,1.558759028670901898e+02
9.892035492431352395e+03,1.554549509665677363e+02
9.892038185759713087e+03,1.550332126833861537e+02
9.892040879088073780e+03,1.546106953825621417e+02
9.892043572416434472e+03,1.541874064427171049e+02
9.892046265744795164e+03,1.537633532559479761e+02
9.892048959073155856e+03,1.533385432276978690e+02
9.892051652401516549e+03,1.529129837766272999e+02
9.892054345729877241e+03,1.524866823344839304e+02
9.892057039058237933e+03,1.520596463459732490e+02
9.892059732386598625e+03,1.516318832686289397e+02
9.892062425714959318e+03,1.512034005726816872e+02
9.892065119043320010e+03,1.507742057409292613e+02
9.892067812371680702e+03,1.503443062686059477e+02
9.892070505700041394e+03,1.499137096632514954e+02
9.892073199028402087e+03,1.494824234445800073e+02
9.892075892356762779e+03,1.490504551443485468e+02
9.892078585685121652e+03,1.486178123065182888e+02
9.892081279013482344e+03,1.481845024859531179e+02
9.892083972341843037e+03,1.477505332500413715e+02
9.892086665670203729e+03,1.473159121773948925e+02
9.892089358998564421e+03,1.468806468580090439e+02
9.892092052326925113e+03,1.464447448931298936e+02
9.892094745655285806e+03,1.460082138951214574e+02
9.892097438983646498e+03,1.455710614873330258e+02
9.892100132312007190e+03,1.451332953039657809e+02
9.892102825640367882e+03,1.446949229899395846e+02
9.892105518968728575e+03,1.442559522007594239e+02
9.892108212297089267e+03,1.438163906023816594e+02
9.892110905625449959e+03,1.433762458710804708e+02
9.892113598953810651e+03,1.429355256933133376e+02
9.892116292282171344e+03,1.424942377655872292e+02
9.892118985610532036e+03,1.420523897943236591e+02
9.892121678938892728e+03,1.416099894957249035e+02
9.892124372267251601e+03,1.411670445959378242e+02
9.892127065595612294e+03,1.407235628297223968e+02
9.892129758923972986e+03,1.402795519421114534e+02
9.892132452252333678e+03,1.398350196870789262e+02
9.892135145580694370e+03,1.393899738277037557e+02
9.892137838909055063e+03,1.389444221360344898e+02
9.892140532237415755e+03,1.384983723929528878e+02
9.892143225565776447e+03,1.380518323880386617e+02
9.892145918894137139e+03,1.376048099194329382e+02
9.892148612222497832e+03,1.371573127937025447e+02
9.892151305550858524e+03,1.367093488257033300e+02
9.892153998879219216e+03,1.362609258384441944e+02
9.892156692207579908e+03,1.358120516629495853e+02
9.892159385535940601e+03,1.353627341381235851e+02
9.892162078864301293e+03,1.349129811106126624e+02
9.892164772192661985e+03,1.344628004346686510e+02
9.892167465521022677e+03,1.340121999720115582e+02
