Time (BJD_TBD - 2450000), L_total/L_star (ppm)
9.879538437500130385e+03,1.223749982428989597e+03
9.879542286652405892e+03,1.228910157474826747e+03
9.879546135804683217e+03,1.233981764520128309e+03
9.879549984956958724e+03,1.238963701556511751e+03
9.879553834109236050e+03,1.243854889390099970e+03
9.879557683261511556e+03,1.248654271869226704e+03
9.879561532413788882e+03,1.253360816143547027e+03
9.879565381566064389e+03,1.257973512880539374e+03
9.879569230718341714e+03,1.262491376511906992e+03
9.879573079870617221e+03,1.266913445438661029e+03
9.879576929022892728e+03,1.271238782262558743e+03
9.879580778175170053e+03,1.275466473989675251e+03
9.879584627327445560e+03,1.279595632228553768e+03
9.879588476479722885e+03,1.283625393401718839e+03
9.879592325631998392e+03,1.287554918921370245e+03
9.879596174784275718e+03,1.291383395389529596e+03
9.879600023936551224e+03,1.295110034761669795e+03
9.879603873088828550e+03,1.298734074533196917e+03
9.879607722241104057e+03,1.302254777890856076e+03
9.879611571393379563e+03,1.305671433883781219e+03
9.879615420545656889e+03,1.308983357570485623e+03
9.879619269697932396e+03,1.312189890160106415e+03
9.879623118850209721e+03,1.315290399162298854e+03
9.879626968002485228e+03,1.318284278507479712e+03
9.879630817154762553e+03,1.321170948684189625e+03
9.879634666307038060e+03,1.323949856846664261e+03
9.879638515459315386e+03,1.326620476937855074e+03
9.879642364611590892e+03,1.329182309784226391e+03
9.879646213763868218e+03,1.331634883204322023e+03
9.879650062916143725e+03,1.333977752090702779e+03
9.879653912068419231e+03,1.336210498502935707e+03
9.879657761220696557e+03,1.338332731741742919e+03
9.879661610372972063e+03,1.340344088417176408e+03
9.879665459525249389e+03,5.203832094790078600e+02
9.879669308677524896e+03,5.218286795621885403e+02
9.879673157829802221e+03,5.232676494710765382e+02
9.879677006982077728e+03,5.246999265906736127e+02
9.879680856134355054e+03,5.261253188702416992e+02
9.879684705286630560e+03,5.275436348384431540e+02
9.879688554438906067e+03,5.289546836285654763e+02
9.879692403591183393e+03,5.303582749969302768e+02
9.879696252743458899e+03,5.317542193413099767e+02
9.879700101895736225e+03,1.354299134525429054e+03
9.879703951048011731e+03,1.355074726911916287e+03
9.879707800200289057e+03,1.355737228788011407e+03
9.879711649352564564e+03,1.356286635119460698e+03
9.879715498504841889e+03,1.356722968448367283e+03
9.879719347657117396e+03,1.357046278857659900e+03
9.879723196809392903e+03,1.357256643932269526e+03
9.879727045961670228e+03,1.357354168710962085e+03
9.879730895113945735e+03,1.357338985632219874e+03
9.879734744266223061e+03,1.357211254473323834e+03
9.879738593418498567e+03,1.356971162282434307e+03
9.879742442570775893e+03,1.356618923303285101e+03
9.879746291723051399e+03,1.356154778894436049e+03
9.879750140875328725e+03,1.355578997439490649e+03
9.879753990027604232e+03,1.354891874253612514e+03
9.879757839179879738e+03,1.354093731479777944e+03
9.879761688332157064e+03,1.353184917980648379e+03
9.879765537484432571e+03,1.352165809224703708e+03
9.879769386636709896e+03,1.351036807161056913e+03
9.879773235788985403e+03,1.349798340094631158e+03
9.879777084941262729e+03,1.348450862546634198e+03
9.879780934093538235e+03,1.346994855117427051e+03
9.879784783245815561e+03,1.345430824333110650e+03
9.879788632398091067e+03,1.343759302496238888e+03
9.879792481550366574e+03,1.341980847519555027e+03
9.879796330702643900e+03,1.340096042760378850e+03
9.879800179854919406e+03,1.338105496849571182e+03
9.879804029007196732e+03,1.336009843504941500e+03
9.879807878159472239e+03,1.333809741352305309e+03
9.879811727311749564e+03,1.331505873724903950e+03
9.879815576464025071e+03,1.329098948472918210e+03
9.879819425616302397e+03,1.326589697749881452e+03
9.879823274768577903e+03,1.323978877810862514e+03
9.879827123920853410e+03,1.321267268787400553e+03
9.879830973073130735e+03,1.318455674468048528e+03
9.879834822225406242e+03,1.315544922073919224e+03
9.879838671377683568e+03,1.312535862014817440e+03
9.879842520529959074e+03,1.309429367660064372e+03
9.879846369682236400e+03,1.306226335081275238e+03
9.879850218834511907e+03,1.302927682812656258e+03
9.879854067986789232e+03,1.299534351581913143e+03
9.879857917139064739e+03,1.296047304060272154e+03
9.879861766291342065e+03,1.292467524581810267e+03
9.879865615443617571e+03,1.288796018883464058e+03
9.879869464595893078e+03,1.285033813814878386e+03
9.879873313748170403e+03,1.281181957059685601e+03
9.879877162900445910e+03,1.277241516852453969e+03
9.879881012052723236e+03,1.273213581672111786e+03
9.879884861204998742e+03,1.269099259958154789e+03
9.879888710357276068e+03,1.264899679791872813e+03
9.879892559509551575e+03,1.260615988603553433e+03
9.879896408661828900e+03,1.256249352843557062e+03
9.879900257814104407e+03,1.251800957680827651e+03
9.879904106966379914e+03,1.247272006666319612e+03
9.879907956118657239e+03,1.242663721412336599e+03
9.879911805270932746e+03,1.237977341268181362e+03
9.879915654423210071e+03,1.233214122969474374e+03
9.879919503575485578e+03,1.228375340316332540e+03
9.879923352727762904e+03,1.223462283811715224e+03
9.879927201880038410e+03,1.218476260332049151e+03
9.879931051032315736e+03,1.213418592757062697e+03
9.879934900184591243e+03,1.208290619633205779e+03
9.879938749336866749e+03,1.203093694797833223e+03
9.879942598489144075e+03,1.197829187023408849e+03
9.879946447641419581e+03,1.192498479658745055e+03
9.879950296793696907e+03,1.187102970241681305e+03
9.879954145945972414e+03,1.181644070146041940e+03
9.879957995098249739e+03,1.176123204184794304e+03
9.879961844250525246e+03,1.170541810251057314e+03
9.879965693402802572e+03,1.164901338914557982e+03
9.879969542555078078e+03,1.159203253057073880e+03
9.879973391707353585e+03,1.153449027465335348e+03
9.879977240859630911e+03,1.147640148447619367e+03
9.879981090011906417e+03,1.141778113448169506e+03
9.879984939164183743e+03,1.135864430631411324e+03
9.879988788316459249e+03,1.129900618505163948e+03
9.879992637468736575e+03,1.123888205496970613e+03
9.879996486621012082e+03,1.117828729573090868e+03
9.880000335773289407e+03,1.111723737810072635e+03
9.880004184925564914e+03,1.105574786009923400e+03
9.880008034077840421e+03,1.099383438270301440e+03
9.880011883230117746e+03,1.093151266581584878e+03
9.880015732382393253e+03,1.086879850422592881e+03
9.880019581534670579e+03,1.080570776325099359e+03
9.880023430686946085e+03,1.074225637481215244e+03
9.880027279839223411e+03,1.067846033301821990e+03
9.880031128991498917e+03,1.061433569021549602e+03
9.880034978143776243e+03,1.054989855254480744e+03
9.880038827296051750e+03,1.048516507597133341e+03
9.880042676448329075e+03,1.042015146181895716e+03
9.880046525600604582e+03,1.035487395278427812e+03
9.880050374752880089e+03,1.028934882848388952e+03
9.880054223905157414e+03,1.022359240130163471e+03
9.880058073057432921e+03,1.015762101223282343e+03
9.880061922209710247e+03,1.009145102641277390e+03
9.880065771361985753e+03,1.002509882910947795e+03
9.880069620514263079e+03,9.958580821214909520e+02
9.880073469666538585e+03,9.891913415236393803e+02
9.880077318818815911e+03,9.825113030786076251e+02
9.880081167971091418e+03,9.758196090575164590e+02
9.880085017123366924e+03,9.691179015937894974e+02
9.880088866275644250e+03,9.624078222674353356e+02
9.880092715427919757e+03,9.556910116898877732e+02
9.880096564580197082e+03,9.489691090576799297e+02
9.880100413732472589e+03,9.422437517544050252e+02
9.880104262884749915e+03,9.355165749026741651e+02
9.880108112037025421e+03,9.287892109678100496e+02
9.880111961189302747e+03,9.220632893117050344e+02
9.880115810341578253e+03,9.153404357986615878e+02
9.880119659493853760e+03,9.086222723547806481e+02
9.880123508646131086e+03,9.019104165604907166e+02
9.880127357798406592e+03,8.952064812444775725e+02
9.880131206950683918e+03,8.885120740474687864e+02
9.880135056102959425e+03,8.818287970352196226e+02
9.880138905255236750e+03,8.751582462626092820e+02
9.880142754407512257e+03,8.685020113901814511e+02
9.880146603559789583e+03,8.618616752521854778e+02
9.880150452712065089e+03,8.552388134770674242e+02
9.880154301864340596e+03,8.486349940630110495e+02
9.880158151016617921e+03,8.420517769871956943e+02
9.880162000168893428e+03,8.354907138172909526e+02
9.880165849321170754e+03,8.289533472943969628e+02
9.880169698473446260e+03,8.224412109651377705e+02
9.880173547625723586e+03,3.777210255484978916e+02
9.880177396777999093e+03,3.711601111002831317e+02
9.880181245930276418e+03,3.646508134309313505e+02
9.880185095082551925e+03,3.581946335602357863e+02
9.880188944234827432e+03,3.517930591916057779e+02
9.880192793387104757e+03,3.454475643457612364e+02
9.880196642539380264e+03,3.391596089974610209e+02
9.880200491691657589e+03,3.329306386860279190e+02
9.880204340843933096e+03,3.267620841742551079e+02
9.880208189996210422e+03,3.206553610637788552e+02
9.880212039148485928e+03,3.146118694611968181e+02
9.880215888300763254e+03,7.468074911388621331e+02
9.880219737453038761e+03,7.407580135133678141e+02
9.880223586605316086e+03,7.347540560275125472e+02
9.880227435757591593e+03,7.287969690651732435e+02
9.880231284909867099e+03,7.228880879441243223e+02
9.880235134062144425e+03,7.170287325907963805e+02
9.880238983214419932e+03,7.112202072189048749e+02
9.880242832366697257e+03,7.054637999849113612e+02
9.880246681518972764e+03,6.997607826892100320e+02
9.880250530671250090e+03,6.941124104381185589e+02
9.880254379823525596e+03,6.885199213537989635e+02
9.880258228975802922e+03,6.829845362459484477e+02
9.880262078128078429e+03,6.775074583307499552e+02
9.880265927280353935e+03,6.720898729151386988e+02
9.880269776432631261e+03,6.667329471123426856e+02
9.880273625584906767e+03,6.614378295619005712e+02
9.880277474737184093e+03,6.562056501296318629e+02
9.880281323889459600e+03,6.510375196504012365e+02
9.880285173041736925e+03,6.459345296362913587e+02
9.880289022194012432e+03,6.408977520293700536e+02
9.880292871346289758e+03,6.359282389209607800e+02
9.880296720498565264e+03,6.310270223146605986e+02
9.880300569650840771e+03,6.261951138592614825e+02
9.880304418803118097e+03,6.214335046109237055e+02
9.880308267955393603e+03,6.167431648003506552e+02
9.880312117107670929e+03,6.121250435833543406e+02
9.880315966259946435e+03,6.075800688305275798e+02
9.880319815412223761e+03,6.031091468875063129e+02
9.880323664564499268e+03,5.987131623756936278e+02
9.880327513716776593e+03,5.943929779647872920e+02
9.880331362869052100e+03,5.901494341847585474e+02
9.880335212021327607e+03,5.859833492128200305e+02
9.880339061173604932e+03,5.818955186870996386e+02
9.880342910325880439e+03,5.778867155257375998e+02
9.880346759478157765e+03,5.739576897330555312e+02
9.880350608630433271e+03,5.701091682404820631e+02
9.880354457782710597e+03,5.663418547236917675e+02
9.880358306934986103e+03,5.626564294554020762e+02
9.880362156087263429e+03,5.590535491356830562e+02
9.880366005239538936e+03,5.555338467567747784e+02
9.880369854391814442e+03,5.520979314483349754e+02
9.880373703544091768e+03,5.487463883463956336e+02
9.880377552696367275e+03,5.454797784680503128e+02
9.880381401848644600e+03,5.422986385770569768e+02
9.880385251000920107e+03,5.392034810792785038e+02
9.880389100153197433e+03,5.361947939002832300e+02
9.880392949305472939e+03,5.332730403932291665e+02
9.880396798457750265e+03,5.304386592302593044e+02
9.880400647610025771e+03,5.276920643229219650e+02
9.880404496762301278e+03,5.250336447286941848e+02
9.880408345914578604e+03,5.224637645778411752e+02
9.880412195066854110e+03,5.199827630061877244e+02
9.880416044219131436e+03,5.175909540827238970e+02
9.880419893371406943e+03,5.152886267616786427e+02
9.880423742523684268e+03,5.130760448228845689e+02
9.880427591675959775e+03,5.109534468366071565e+02
9.880431440828237101e+03,5.089210461180351786e+02
9.880435289980512607e+03,5.069790307048982640e+02
9.880439139132789933e+03,5.051275633261167286e+02
9.880442988285065439e+03,5.033667813922250502e+02
9.880446837437340946e+03,5.016967969789705535e+02
9.880450686589618272e+03,5.001176968267094480e+02
9.880454535741893778e+03,4.986295423457787592e+02
9.880458384894171104e+03,4.972323696214527899e+02
9.880462234046446611e+03,4.959261894363790475e+02
9.880466083198723936e+03,4.947109872888406130e+02
9.880469932350999443e+03,4.935867234279639320e+02
9.880473781503276768e+03,4.925533328861082509e+02
9.880477630655552275e+03,4.916107255268029235e+02
9.880481479807827782e+03,4.907587860915982674e+02
9.880485328960105107e+03,4.899973742587729930e+02
9.880489178112380614e+03,4.893263247079291318e+02
9.880493027264657940e+03,4.887454471879242419e+02
9.880496876416933446e+03,4.882545265963728980e+02
9.880500725569210772e+03,4.878533230610075861e+02
9.880504574721486279e+03,4.875415720316655666e+02
9.880508423873763604e+03,4.873189843754476556e+02
9.880512273026039111e+03,4.871852464810909282e+02
9.880516122178314617e+03,4.871400203678105072e+02
9.880519971330591943e+03,4.871829438019462373e+02
9.880523820482867450e+03,4.873136304192814805e+02
9.880527669635144775e+03,4.875316698542484914e+02
9.880531518787420282e+03,4.878366278747540719e+02
9.880535367939697608e+03,4.882280465246370795e+02
9.880539217091973114e+03,4.887054442704325652e+02
9.880543066244250440e+03,4.892683161570064385e+02
9.880546915396525947e+03,4.899161339661032457e+02
9.880550764548801453e+03,4.906483463846124664e+02
9.880554613701078779e+03,4.914643791765627725e+02
9.880558462853354285e+03,4.923636353604583746e+02
9.880562312005631611e+03,4.933454953967629990e+02
9.880566161157907118e+03,4.944093173751474524e+02
9.880570010310184443e+03,4.955544372147558647e+02
9.880573859462459950e+03,4.967801688626021246e+02
9.880577708614737276e+03,4.980858045061083317e+02
9.880581557767012782e+03,4.994706147824341542e+02
9.880585406919288289e+03,5.009338490023510531e+02
9.880589256071565615e+03,5.024747353738335960e+02
9.880593105223841121e+03,5.040924812305501632e+02
9.880596954376118447e+03,5.057862732734025712e+02
9.880600803528393953e+03,5.075552778062026391e+02
9.880604652680671279e+03,5.093986409892405050e+02
9.880608501832946786e+03,5.113154890850786387e+02
9.880612350985224111e+03,5.133049287232379356e+02
9.880616200137499618e+03,5.153660471558479230e+02
9.880620049289776944e+03,5.174979125331622072e+02
9.880623898442052450e+03,5.196995741687971986e+02
9.880627747594327957e+03,5.219700628246847600e+02
9.880631596746605283e+03,5.243083909910678813e+02
9.880635445898880789e+03,5.267135531707135669e+02
9.880639295051158115e+03,5.291845261791363555e+02
9.880643144203433621e+03,5.317202694325685570e+02
9.880646993355710947e+03,5.343197252589309301e+02
9.880650842507986454e+03,5.369818191943794545e+02
9.880654691660263779e+03,5.397054603036647222e+02
9.880658540812539286e+03,5.424895414849357849e+02
9.880662389964814793e+03,5.453329397977896633e+02
9.880666239117092118e+03,5.482345167828054855e+02
9.880670088269367625e+03,5.511931187846431612e+02
9.880673937421644951e+03,5.542075772930429594e+02
9.880677786573920457e+03,5.572767092668639179e+02
9.880681635726197783e+03,5.603993174845136309e+02
9.880685484878473289e+03,5.635741908750997027e+02
9.880689334030750615e+03,5.668001048766121812e+02
9.880693183183026122e+03,5.700758217738352869e+02
9.880697032335301628e+03,5.734000910623143454e+02
9.880700881487578954e+03,5.767716498005901258e+02
9.880704730639854461e+03,5.801892229652694368e+02
9.880708579792131786e+03,5.836515238253483631e+02
9.880712428944407293e+03,5.871572542954661458e+02
9.880716278096684619e+03,5.907051053181312454e+02
9.880720127248960125e+03,5.942937572224742553e+02
9.880723976401237451e+03,5.979218801124243328e+02
9.880727825553512957e+03,6.015881342305875705e+02
9.880731674705788464e+03,6.052911703502016962e+02
9.880735523858065790e+03,6.090296301525429499e+02
9.880739373010341296e+03,6.128021466063828484e+02
9.880743222162618622e+03,6.166073443674931696e+02
9.880747071314894129e+03,6.204438401536430092e+02
9.880750920467171454e+03,6.243102431503000389e+02
9.880754769619446961e+03,6.282051553893926439e+02
9.880758618771724286e+03,6.321271721590419475e+02
9.880762467923999793e+03,6.360748823857018124e+02
9.880766317076275300e+03,6.400468690455991236e+02
9.880770166228552625e+03,6.440417095592540591e+02
9.880774015380828132e+03,6.480579761872297695e+02
9.880777864533105458e+03,6.520942364461487841e+02
9.880781713685380964e+03,6.561490534975077935e+02
9.880785562837658290e+03,6.602209865680359826e+02
9.880789411989933797e+03,6.643085913404662506e+02
9.880793261142211122e+03,6.684104203759252414e+02
9.880797110294486629e+03,6.725250235062537740e+02
9.880800959446762135e+03,6.766509482560175002e+02
9.880804808599039461e+03,6.807867402457334265e+02
9.880808657751314968e+03,6.849309435954693299e+02
9.880812506903592293e+03,6.890821013483599700e+02
9.880816356055867800e+03,6.932387558650252686e+02
9.880820205208145126e+03,6.973994492494681481e+02
9.880824054360420632e+03,7.015627237435969619e+02
9.880827903512697958e+03,7.057271221531085530e+02
9.880831752664973465e+03,7.098911882417085053e+02
9.880835601817250790e+03,7.140534671565147846e+02
9.880839450969526297e+03,7.182125058215706304e+02
9.880843300121801803e+03,7.223668533603469086e+02
9.880847149274079129e+03,7.265150614979449983e+02
9.880850998426354636e+03,7.306556849625986843e+02
9.880854847578631961e+03,7.347872819059257381e+02
9.880858696730907468e+03,7.389084142928587653e+02
9.880862545883184794e+03,7.430176483217952637e+02
9.880866395035460300e+03,7.471135548123853596e+02
9.880870244187737626e+03,7.511947096231614296e+02
9.880874093340013133e+03,7.552596940367747038e+02
9.880877942492288639e+03,7.593070951727502234e+02
9.880881791644565965e+03,7.633355063793111412e+02
9.880885640796841471e+03,7.673435276236615437e+02
9.880889489949118797e+03,7.713297658994383710e+02
9.880893339101394304e+03,7.752928356038200945e+02
9.880897188253671629e+03,7.792313589428345040e+02
9.880901037405947136e+03,7.831439663045151747e+02
9.880904886558224462e+03,7.870292966597095301e+02
9.880908735710499968e+03,7.908859979308949733e+02
9.880912584862775475e+03,7.947127273862500942e+02
9.880916434015052801e+03,7.985081520127571366e+02
9.880920283167328307e+03,8.022709488869294319e+02
9.880924132319605633e+03,8.059998055606631624e+02
9.880927981471881139e+03,8.096934204175299783e+02
9.880931830624158465e+03,8.133505030544710053e+02
9.880935679776433972e+03,8.169697746324194441e+02
9.880939528928711297e+03,8.205499682515994664e+02
9.880943378080986804e+03,8.240898292961185234e+02
9.880947227233262311e+03,8.275881158008232887e+02
9.880951076385539636e+03,8.310435987977108425e+02
9.880954925537815143e+03,8.344550626592018716e+02
9.880958774690092469e+03,8.378213054540241274e+02
9.880962623842367975e+03,8.411411392751532503e+02
9.880966472994645301e+03,8.444133905895964745e+02
9.880970322146920807e+03,8.476369005590712504e+02
9.880974171299198133e+03,8.508105253816418099e+02
9.880978020451473640e+03,8.539331366047834990e+02
9.880981869603749146e+03,8.570036214570723132e+02
9.880985718756026472e+03,8.600208831605045816e+02
9.880989567908301979e+03,8.629838412389757423e+02
9.880993417060579304e+03,8.658914318364774090e+02
9.880997266212854811e+03,8.687426080097225167e+02
9.881001115365132137e+03,8.715363400384356964e+02
9.881004964517407643e+03,8.742716157092572757e+02
9.881008813669684969e+03,8.769474406163064941e+02
9.881012662821960475e+03,8.795628384360664995e+02
9.881016511974237801e+03,8.821168512178878700e+02
9.881020361126513308e+03,8.846085396495720943e+02
9.881024210278788814e+03,8.870369833363724865e+02
9.881028059431066140e+03,8.894012810626517194e+02
9.881031908583341647e+03,8.917005510489467497e+02
9.881035757735618972e+03,8.939339312147890269e+02
9.881039606887894479e+03,8.961005794198182457e+02
9.881043456040171804e+03,8.981996737166915636e+02
9.881047305192447311e+03,9.002304125819534875e+02
9.881051154344724637e+03,9.021920151575642421e+02
9.881055003497000143e+03,9.040837214712846617e+02
9.881058852649275650e+03,9.059047926657162861e+02
9.881062701801552976e+03,9.076545112121873444e+02
9.881066550953828482e+03,9.093321811195294231e+02
9.881070400106105808e+03,9.109371281451195728e+02
